La	Lo	Sig	Theta	Ice
51.897000	143.260000	-7.416500	-18.171000	1
51.929000	143.310000	-10.527000	-18.171000	1
51.961000	143.360000	-9.839300	-18.171000	1
51.993000	143.410000	-9.487500	-18.171000	1
52.025000	143.460000	-11.916000	-18.171000	1
52.056000	143.510000	-9.529800	-18.171000	1
52.088000	143.560000	-10.873000	-18.171000	1
52.120000	143.610000	-10.184000	-18.171000	1
52.152000	143.660000	-9.159900	-18.171000	1
52.184000	143.710000	-8.469800	-18.171000	1
52.215000	143.760000	-11.927000	-18.171000	1
52.247000	143.810000	-7.791100	-18.171000	1
52.279000	143.850000	-6.393900	-18.171000	1
52.311000	143.900000	-9.843800	-18.171000	1
52.342000	143.950000	-8.464900	-18.171000	1
52.374000	144.000000	-9.495800	-18.172000	1
52.405000	144.050000	-8.117900	-18.171000	1
52.437000	144.110000	-7.090300	-18.172000	1
52.469000	144.160000	-7.773100	-18.172000	1
52.500000	144.210000	-8.105600	-18.172000	1
52.532000	144.260000	-8.465700	-18.172000	1
52.563000	144.310000	-8.114800	-18.172000	1
52.595000	144.360000	-6.726900	-18.172000	1
52.626000	144.410000	-6.726700	-18.172000	1
52.657000	144.460000	-5.703000	-18.172000	1
52.689000	144.510000	-5.706700	-18.172000	1
52.720000	144.560000	-3.966600	-18.172000	1
52.751000	144.610000	-6.044600	-18.172000	1
52.783000	144.660000	-3.980700	-18.172000	1
52.814000	144.710000	-6.376600	-18.172000	1
52.845000	144.760000	-5.356600	-18.172000	1
52.877000	144.820000	-5.720100	-18.172000	1
52.908000	144.870000	-3.967800	-18.172000	1
52.939000	144.920000	-3.277200	-18.172000	1
52.970000	144.970000	-5.004800	-18.172000	1
53.001000	145.020000	-4.324100	-18.172000	1
53.032000	145.070000	-5.361600	-18.172000	1
53.063000	145.120000	-5.018700	-18.172000	1
53.094000	145.180000	-3.282500	-18.172000	1
53.125000	145.230000	-2.266700	-18.172000	1
53.157000	145.280000	-1.232400	-18.172000	1
53.187000	145.330000	-1.583200	-18.172000	1
53.218000	145.380000	-0.212560	-18.172000	1
53.249000	145.440000	-2.261200	-18.172000	1
53.280000	145.490000	0.490960	-18.172000	1
53.311000	145.540000	2.575300	-18.172000	1
53.342000	145.590000	0.855590	-18.172000	1
53.373000	145.650000	-3.651100	-18.172000	1
53.404000	145.700000	-1.221200	-18.172000	1
53.434000	145.750000	-0.851990	-18.172000	1
53.465000	145.800000	-0.182600	-18.172000	1
53.496000	145.860000	-2.242600	-18.172000	1
53.526000	145.910000	0.490770	-18.173000	1
53.557000	145.960000	-0.207810	-18.172000	1
53.588000	146.020000	0.505290	-18.173000	1
53.618000	146.070000	-0.871850	-18.173000	1
53.649000	146.120000	-3.638300	-18.173000	1
53.680000	146.180000	-0.523420	-18.173000	1
53.710000	146.230000	-0.522960	-18.173000	1
53.741000	146.280000	-0.196090	-18.173000	1
53.771000	146.340000	-2.242200	-18.173000	1
53.801000	146.390000	-0.170110	-18.173000	1
59.071000	158.450000	-3.925500	-18.178000	1
59.095000	158.520000	-3.588800	-18.178000	1
59.118000	158.590000	-4.958800	-18.178000	1
59.142000	158.660000	-3.932300	-18.178000	1
59.165000	158.740000	-4.611300	-18.178000	1
59.189000	158.810000	-4.962300	-18.178000	1
59.212000	158.880000	-4.281600	-18.178000	1
59.235000	158.950000	-4.626400	-18.178000	1
59.259000	159.030000	-4.966100	-18.178000	1
59.282000	159.100000	-3.586600	-18.178000	1
59.305000	159.170000	-4.276700	-18.178000	1
59.329000	159.240000	-2.877400	-18.178000	1
59.352000	159.320000	-3.228300	-18.178000	1
59.375000	159.390000	-3.581800	-18.178000	1
59.398000	159.460000	-3.577800	-18.178000	1
59.421000	159.540000	-3.910200	-18.178000	1
59.444000	159.610000	-4.611300	-18.178000	1
59.467000	159.680000	-3.914200	-18.178000	1
59.489000	159.760000	-4.944500	-18.178000	1
59.512000	159.830000	-4.944500	-18.178000	1
59.535000	159.910000	-5.302100	-18.178000	1
59.558000	159.980000	-4.275100	-18.178000	1
59.580000	160.050000	-5.290800	-18.178000	1
59.603000	160.130000	-4.959200	-18.178000	1
59.626000	160.200000	-5.305300	-18.178000	1
59.648000	160.280000	-5.305300	-18.178000	1
59.671000	160.350000	-3.924400	-18.178000	1
59.693000	160.430000	-4.599700	-18.178000	1
59.716000	160.500000	-4.273200	-18.178000	1
59.738000	160.580000	-4.599200	-18.178000	1
59.760000	160.650000	-3.586000	-18.178000	1
59.783000	160.730000	-3.923300	-18.178000	1
59.805000	160.800000	-3.585400	-18.178000	1
52.694000	144.400000	-7.676200	-17.414000	1
52.725000	144.450000	-4.232900	-17.414000	1
52.756000	144.500000	-4.586200	-17.414000	1
52.788000	144.550000	-4.926000	-17.414000	1
52.819000	144.600000	-2.512200	-17.414000	1
52.850000	144.660000	-4.950300	-17.414000	1
52.882000	144.710000	-4.924700	-17.415000	1
52.913000	144.760000	-6.642700	-17.415000	1
52.944000	144.810000	-5.246400	-17.415000	1
52.975000	144.860000	-4.249500	-17.415000	1
53.007000	144.910000	-5.602000	-17.415000	1
53.038000	144.960000	-4.938900	-17.415000	1
53.069000	145.020000	-4.564600	-17.415000	1
53.100000	145.070000	-5.604600	-17.415000	1
53.131000	145.120000	-1.119000	-17.415000	1
53.162000	145.170000	0.254260	-17.415000	1
53.193000	145.220000	0.252110	-17.415000	1
53.224000	145.270000	0.248840	-17.415000	1
53.255000	145.330000	-0.805900	-17.415000	1
53.286000	145.380000	-3.558600	-17.415000	1
53.317000	145.430000	-0.452450	-17.415000	1
53.348000	145.480000	-3.526500	-17.415000	1
53.379000	145.540000	1.618600	-17.415000	1
53.410000	145.590000	0.947860	-17.415000	1
53.440000	145.640000	3.014700	-17.415000	1
53.471000	145.690000	1.292500	-17.415000	1
53.502000	145.750000	1.635500	-17.415000	1
53.533000	145.800000	0.588230	-17.415000	1
53.563000	145.850000	-2.834400	-17.415000	1
53.594000	145.910000	-3.526800	-17.415000	1
53.625000	145.960000	-2.184700	-17.415000	1
53.655000	146.010000	-0.100120	-17.415000	1
53.686000	146.070000	0.224090	-17.415000	1
53.717000	146.120000	0.605850	-17.415000	1
53.747000	146.170000	1.636400	-17.415000	1
53.778000	146.230000	0.609380	-17.415000	1
59.114000	158.390000	-3.447800	-17.420000	1
59.138000	158.470000	-4.126300	-17.420000	1
59.161000	158.540000	-3.110600	-17.420000	1
59.185000	158.610000	-3.095300	-17.420000	1
59.208000	158.680000	-3.088800	-17.420000	1
59.232000	158.760000	-3.105800	-17.420000	1
59.255000	158.830000	-3.778200	-17.420000	1
59.279000	158.900000	-2.743700	-17.420000	1
59.302000	158.970000	-3.783600	-17.420000	1
59.325000	159.050000	-2.754400	-17.420000	1
59.349000	159.120000	-2.742800	-17.420000	1
59.372000	159.190000	-4.466900	-17.420000	1
59.395000	159.270000	-3.776300	-17.420000	1
59.418000	159.340000	-3.780500	-17.420000	1
59.441000	159.410000	-3.436500	-17.420000	1
59.464000	159.490000	-3.432400	-17.421000	1
59.487000	159.560000	-3.432200	-17.421000	1
59.510000	159.630000	-3.432100	-17.420000	1
59.533000	159.710000	-4.137000	-17.421000	1
59.556000	159.780000	-3.782000	-17.421000	1
59.579000	159.860000	-3.779400	-17.421000	1
59.601000	159.930000	-3.779200	-17.421000	1
59.624000	160.000000	-3.091400	-17.421000	1
59.647000	160.080000	-3.799100	-17.421000	1
59.670000	160.150000	-4.829300	-17.421000	1
59.692000	160.230000	-4.141400	-17.421000	1
59.715000	160.300000	-3.444900	-17.421000	1
59.737000	160.380000	-3.800900	-17.421000	1
59.760000	160.450000	-4.134400	-17.421000	1
59.782000	160.530000	-3.110200	-17.421000	1
59.804000	160.600000	-3.776300	-17.421000	1
59.827000	160.680000	-3.776100	-17.421000	1
59.849000	160.750000	-3.090000	-17.421000	1
59.871000	160.830000	-2.739800	-17.421000	1
59.893000	160.900000	-3.444500	-17.421000	1
59.110000	158.200000	-2.377200	-16.658000	1
59.133000	158.270000	-2.704300	-16.658000	1
59.157000	158.340000	-2.387500	-16.658000	1
59.181000	158.420000	-3.771200	-16.658000	1
59.204000	158.490000	-3.066800	-16.658000	1
59.228000	158.560000	-3.416600	-16.658000	1
59.252000	158.630000	-3.066200	-16.658000	1
59.275000	158.700000	-2.388200	-16.658000	1
59.299000	158.780000	-1.347600	-16.658000	1
59.322000	158.850000	-2.361200	-16.658000	1
59.345000	158.920000	-3.429100	-16.658000	1
59.369000	159.000000	-3.395300	-16.658000	1
59.392000	159.070000	-2.717300	-16.658000	1
59.415000	159.140000	-3.044700	-16.658000	1
59.438000	159.220000	-2.040400	-16.658000	1
59.462000	159.290000	-3.056600	-16.658000	1
59.485000	159.360000	-3.733900	-16.658000	1
59.508000	159.440000	-3.043600	-16.658000	1
59.531000	159.510000	-2.729500	-16.658000	1
59.554000	159.580000	-3.405800	-16.658000	1
59.577000	159.660000	-3.055600	-16.658000	1
59.599000	159.730000	-3.055600	-16.658000	1
59.622000	159.800000	-2.729200	-16.658000	1
59.645000	159.880000	-3.055300	-16.658000	1
59.668000	159.950000	-2.388900	-16.658000	1
59.691000	160.030000	-3.065300	-16.658000	1
59.713000	160.100000	-3.415200	-16.658000	1
59.736000	160.180000	-3.414900	-16.658000	1
59.758000	160.250000	-4.081300	-16.658000	1
59.781000	160.330000	-3.062700	-16.658000	1
59.803000	160.400000	-1.692100	-16.658000	1
59.826000	160.480000	-3.062200	-16.658000	1
59.848000	160.550000	-2.721800	-16.658000	1
59.871000	160.630000	-3.061600	-16.658000	1
59.893000	160.700000	-2.734900	-16.658000	1
59.915000	160.780000	-1.340600	-16.658000	1
59.937000	160.850000	-3.043100	-16.658000	1
59.959000	160.930000	-2.362600	-16.658000	1
59.981000	161.000000	-0.306810	-16.658000	1
52.860000	144.440000	-4.461000	-15.895000	1
52.891000	144.490000	-4.076500	-15.895000	1
52.923000	144.540000	-3.718600	-15.895000	1
52.954000	144.590000	-3.049300	-15.895000	1
52.985000	144.640000	0.707980	-15.895000	1
53.017000	144.690000	0.399690	-15.895000	1
53.048000	144.750000	0.400100	-15.895000	1
53.079000	144.800000	-4.420300	-15.895000	1
53.110000	144.850000	-2.685900	-15.895000	1
53.141000	144.900000	-4.419500	-15.895000	1
53.173000	144.950000	-3.386300	-15.895000	1
53.204000	145.000000	-4.407400	-15.895000	1
53.235000	145.060000	-4.404500	-15.895000	1
53.266000	145.110000	-1.004500	-15.895000	1
53.297000	145.160000	-4.057200	-15.895000	1
53.328000	145.210000	-3.032800	-15.895000	1
53.359000	145.260000	2.818400	-15.895000	1
53.390000	145.320000	-2.685600	-15.895000	1
53.421000	145.370000	-2.698900	-15.895000	1
53.452000	145.420000	-3.371100	-15.895000	1
53.483000	145.470000	-3.364400	-15.895000	1
53.514000	145.530000	-0.613450	-15.895000	1
53.544000	145.580000	1.093400	-15.895000	1
53.575000	145.630000	-2.332800	-15.895000	1
53.606000	145.690000	-2.688800	-15.895000	1
53.637000	145.740000	-1.995800	-15.895000	1
53.668000	145.790000	1.442600	-15.895000	1
53.698000	145.840000	-1.647400	-15.895000	1
53.729000	145.900000	1.099600	-15.896000	1
53.760000	145.950000	0.766250	-15.896000	1
59.574000	159.460000	-3.262400	-15.900000	1
59.597000	159.530000	-3.612400	-15.900000	1
59.620000	159.610000	-2.210600	-15.900000	1
59.642000	159.680000	-3.590900	-15.900000	1
59.665000	159.750000	-2.578100	-15.900000	1
59.688000	159.830000	-3.608200	-15.900000	1
59.711000	159.900000	-2.906600	-15.900000	1
59.734000	159.980000	-2.958000	-15.900000	1
59.756000	160.050000	-3.620500	-15.900000	1
59.779000	160.130000	-2.239800	-15.900000	1
59.802000	160.200000	-3.268600	-15.900000	1
59.824000	160.280000	-2.601900	-15.900000	1
59.847000	160.350000	-2.929200	-15.900000	1
59.869000	160.430000	-3.631600	-15.900000	1
59.892000	160.500000	-1.574700	-15.900000	1
59.914000	160.580000	-2.238200	-15.900000	1
59.936000	160.650000	-1.897900	-15.900000	1
59.958000	160.730000	-1.910100	-15.900000	1
59.981000	160.800000	-1.909700	-15.901000	1
60.003000	160.880000	-1.573000	-15.901000	1
59.026000	157.600000	-0.187140	-15.144000	1
59.050000	157.670000	1.170700	-15.144000	1
59.074000	157.740000	1.544400	-15.144000	1
59.098000	157.810000	-0.175760	-15.144000	1
59.122000	157.880000	-1.558700	-15.144000	1
59.146000	157.950000	-0.864410	-15.144000	1
59.170000	158.030000	-0.527720	-15.144000	1
59.194000	158.100000	0.852800	-15.144000	1
59.218000	158.170000	-0.529410	-15.144000	1
59.242000	158.240000	0.161000	-15.144000	1
59.265000	158.310000	-0.528670	-15.144000	1
59.289000	158.390000	-1.215800	-15.144000	1
59.313000	158.460000	-1.558100	-15.144000	1
59.336000	158.530000	-0.861300	-15.144000	1
59.360000	158.600000	-0.523400	-15.144000	1
59.383000	158.680000	-2.240800	-15.144000	1
59.407000	158.750000	-0.526370	-15.144000	1
59.430000	158.820000	-1.892600	-15.144000	1
59.454000	158.900000	-0.530420	-15.144000	1
59.477000	158.970000	0.512550	-15.144000	1
59.500000	159.040000	-0.526020	-15.144000	1
59.524000	159.120000	-0.177060	-15.144000	1
59.547000	159.190000	-2.249600	-15.144000	1
59.570000	159.260000	-1.219100	-15.144000	1
59.593000	159.340000	-2.242900	-15.144000	1
59.616000	159.410000	-1.218700	-15.144000	1
59.639000	159.480000	-2.586500	-15.144000	1
59.662000	159.560000	-0.522130	-15.145000	1
59.685000	159.630000	-1.218400	-15.144000	1
59.708000	159.710000	-2.246000	-15.144000	1
59.731000	159.780000	-1.558300	-15.144000	1
59.754000	159.850000	-1.892000	-15.144000	1
59.776000	159.930000	-1.241800	-15.145000	1
59.799000	160.000000	-2.234300	-15.145000	1
59.822000	160.080000	-1.921600	-15.144000	1
59.844000	160.150000	-1.557400	-15.145000	1
59.867000	160.230000	1.202300	-15.144000	1
59.890000	160.300000	1.165000	-15.144000	1
59.912000	160.380000	-0.882430	-15.144000	1
59.934000	160.450000	-0.894650	-15.144000	1
59.957000	160.530000	-1.584300	-15.145000	1
59.979000	160.600000	-2.236700	-15.145000	1
60.002000	160.680000	-2.964000	-15.145000	1
60.024000	160.760000	-0.869460	-15.145000	1
60.046000	160.830000	0.511020	-15.145000	1
60.068000	160.910000	-1.545100	-15.145000	1
60.090000	160.980000	-1.884800	-15.145000	1
52.168000	143.130000	-4.609700	-14.385000	1
52.200000	143.170000	1.584000	-14.385000	1
52.232000	143.220000	-3.570100	-14.385000	1
52.264000	143.270000	-4.953900	-14.385000	1
52.296000	143.320000	-5.997700	-14.385000	1
52.328000	143.370000	-6.356500	-14.385000	1
52.360000	143.420000	-7.377900	-14.385000	1
52.392000	143.470000	-4.262800	-14.385000	1
52.424000	143.520000	-3.604800	-14.385000	1
52.456000	143.570000	-4.958800	-14.385000	1
52.488000	143.620000	-3.578100	-14.385000	1
52.519000	143.670000	-3.917900	-14.385000	1
52.551000	143.720000	-3.925100	-14.385000	1
52.583000	143.770000	-5.650100	-14.385000	1
52.615000	143.820000	-5.294800	-14.385000	1
52.646000	143.870000	-5.993300	-14.385000	1
52.678000	143.920000	-7.375900	-14.385000	1
52.710000	143.970000	-4.959900	-14.385000	1
52.741000	144.020000	-5.983700	-14.385000	1
52.773000	144.070000	-6.682500	-14.385000	1
52.804000	144.120000	-6.679400	-14.385000	1
52.836000	144.170000	-6.679300	-14.385000	1
52.867000	144.220000	-7.711600	-14.385000	1
52.899000	144.280000	-6.330800	-14.385000	1
52.930000	144.330000	-4.609600	-14.385000	1
52.962000	144.380000	-3.922700	-14.385000	1
53.430000	145.150000	-1.160900	-14.386000	1
53.461000	145.200000	1.931200	-14.386000	1
53.492000	145.260000	5.021700	-14.386000	1
53.523000	145.310000	5.019700	-14.386000	1
53.554000	145.360000	3.968800	-14.386000	1
53.585000	145.410000	-0.452160	-14.386000	1
53.616000	145.470000	-2.185800	-14.386000	1
53.647000	145.520000	-3.264600	-14.386000	1
53.678000	145.570000	0.550160	-14.386000	1
53.709000	145.630000	4.706000	-14.386000	1
53.739000	145.680000	2.972500	-14.386000	1
53.770000	145.730000	2.972900	-14.386000	1
53.801000	145.790000	4.682100	-14.386000	1
53.832000	145.840000	2.938600	-14.386000	1
53.862000	145.890000	3.650400	-14.386000	1
53.893000	145.950000	1.933200	-14.386000	1
53.924000	146.000000	2.975100	-14.386000	1
53.954000	146.050000	2.964200	-14.386000	1
53.985000	146.110000	3.676100	-14.386000	1
54.016000	146.160000	2.611300	-14.386000	1
54.046000	146.210000	5.709600	-14.386000	1
54.077000	146.270000	5.383800	-14.386000	1
54.107000	146.320000	6.414300	-14.386000	1
54.137000	146.380000	5.714700	-14.386000	1
54.168000	146.430000	5.715200	-14.386000	1
54.198000	146.480000	5.718100	-14.386000	1
54.229000	146.540000	5.053700	-14.386000	1
54.259000	146.590000	5.376700	-14.386000	1
54.289000	146.650000	5.027200	-14.387000	1
54.319000	146.700000	4.375300	-14.387000	1
54.350000	146.760000	5.042000	-14.387000	1
54.380000	146.810000	3.322500	-14.387000	1
54.410000	146.870000	5.375400	-14.387000	1
54.440000	146.920000	4.359700	-14.387000	1
54.470000	146.980000	2.643900	-14.387000	1
54.501000	147.030000	5.026800	-14.387000	1
54.531000	147.090000	2.994900	-14.387000	1
54.561000	147.140000	3.685400	-14.387000	1
54.591000	147.200000	5.042200	-14.387000	1
54.621000	147.250000	1.247300	-14.387000	1
54.651000	147.310000	3.310700	-14.387000	1
54.681000	147.360000	4.703600	-14.387000	1
54.711000	147.420000	5.407700	-14.387000	1
54.740000	147.480000	4.700700	-14.387000	1
54.770000	147.530000	5.055000	-14.387000	1
59.019000	157.400000	2.005400	-14.390000	1
59.043000	157.470000	3.048300	-14.390000	1
59.067000	157.550000	3.048800	-14.390000	1
59.091000	157.620000	2.359300	-14.390000	1
59.116000	157.690000	3.041100	-14.390000	1
59.140000	157.760000	3.727800	-14.390000	1
59.164000	157.830000	2.004400	-14.390000	1
59.188000	157.900000	2.684900	-14.390000	1
59.212000	157.980000	-0.388750	-14.390000	1
59.235000	158.050000	-0.033232	-14.390000	1
59.259000	158.120000	0.973460	-14.390000	1
59.283000	158.190000	0.965880	-14.390000	1
59.307000	158.260000	0.625730	-14.390000	1
59.331000	158.340000	-0.391440	-14.390000	1
59.354000	158.410000	0.994080	-14.390000	1
59.378000	158.480000	-1.093200	-14.390000	1
59.402000	158.550000	0.971090	-14.390000	1
59.425000	158.630000	0.669000	-14.390000	1
59.449000	158.700000	1.685700	-14.390000	1
59.472000	158.770000	-0.405570	-14.390000	1
59.496000	158.850000	-0.401520	-14.390000	1
59.519000	158.920000	-1.050000	-14.390000	1
59.542000	158.990000	-0.373450	-14.390000	1
59.566000	159.070000	0.316920	-14.390000	1
59.589000	159.140000	0.997210	-14.390000	1
59.612000	159.210000	-0.060239	-14.390000	1
59.635000	159.290000	0.281710	-14.390000	1
59.658000	159.360000	-0.404440	-14.391000	1
59.681000	159.430000	-0.060487	-14.390000	1
59.704000	159.510000	-2.786900	-14.391000	1
59.727000	159.580000	-3.817200	-14.390000	1
59.750000	159.660000	-1.416500	-14.390000	1
59.773000	159.730000	0.993870	-14.391000	1
59.796000	159.810000	-3.136700	-14.390000	1
59.819000	159.880000	-3.483000	-14.391000	1
59.842000	159.950000	-2.126200	-14.391000	1
59.864000	160.030000	-1.099600	-14.390000	1
59.887000	160.100000	-2.452000	-14.391000	1
59.910000	160.180000	-2.123000	-14.391000	1
59.932000	160.250000	-2.794000	-14.390000	1
59.955000	160.330000	-0.068376	-14.391000	1
59.977000	160.410000	-1.070700	-14.390000	1
59.999000	160.480000	0.649860	-14.391000	1
60.022000	160.560000	0.288840	-14.391000	1
60.044000	160.630000	0.282930	-14.391000	1
60.066000	160.710000	1.350100	-14.391000	1
60.089000	160.780000	1.309200	-14.391000	1
60.111000	160.860000	-0.058140	-14.391000	1
60.133000	160.940000	-0.406460	-14.391000	1
60.155000	161.010000	-1.450000	-14.391000	1
60.177000	161.090000	0.299530	-14.391000	1
60.199000	161.160000	2.708800	-14.391000	1
52.203000	143.070000	-6.658200	-13.628000	1
52.235000	143.120000	-6.651700	-13.628000	1
52.267000	143.170000	-0.466090	-13.628000	1
52.299000	143.220000	-1.157300	-13.628000	1
52.331000	143.270000	-3.568300	-13.628000	1
52.363000	143.320000	-3.209500	-13.628000	1
52.395000	143.370000	-0.465010	-13.628000	1
52.427000	143.410000	-5.642100	-13.628000	1
52.459000	143.460000	-5.264300	-13.628000	1
52.490000	143.510000	-4.606400	-13.628000	1
52.522000	143.560000	-6.312900	-13.628000	1
52.554000	143.610000	-4.954400	-13.628000	1
52.586000	143.660000	-6.666100	-13.628000	1
52.618000	143.710000	-3.923600	-13.628000	1
52.649000	143.760000	-5.303600	-13.628000	1
52.681000	143.810000	-6.673800	-13.628000	1
52.713000	143.870000	-7.007400	-13.628000	1
52.744000	143.920000	-4.936400	-13.628000	1
52.776000	143.970000	-4.615900	-13.628000	1
52.808000	144.020000	-5.305700	-13.628000	1
52.839000	144.070000	-5.979300	-13.628000	1
52.871000	144.120000	-5.291200	-13.628000	1
52.902000	144.170000	-7.324000	-13.628000	1
52.934000	144.220000	-4.600100	-13.628000	1
52.965000	144.270000	-3.909600	-13.628000	1
52.997000	144.320000	-1.498700	-13.628000	1
59.301000	158.070000	0.672930	-13.633000	1
59.325000	158.140000	0.320760	-13.633000	1
59.349000	158.210000	1.701300	-13.633000	1
59.372000	158.290000	0.326470	-13.633000	1
59.396000	158.360000	-0.355790	-13.633000	1
