La	Lo	Sig	Theta	Ice
53.734000	140.140000	-7.764600	-18.172000	1
53.765000	140.200000	-6.390200	-18.173000	1
53.795000	140.250000	-6.722200	-18.173000	1
53.826000	140.300000	-11.224000	-18.173000	1
53.856000	140.360000	-11.890000	-18.173000	1
53.886000	140.410000	-10.203000	-18.173000	1
53.917000	140.470000	-8.480300	-18.173000	1
53.947000	140.520000	-9.510800	-18.173000	1
53.977000	140.570000	-9.123000	-18.173000	1
54.008000	140.630000	-9.122100	-18.173000	1
54.038000	140.680000	-9.128200	-18.173000	1
54.068000	140.740000	-7.788000	-18.173000	1
54.098000	140.790000	-8.127700	-18.173000	1
54.128000	140.850000	-8.090000	-18.173000	1
54.158000	140.900000	-8.455200	-18.173000	1
54.188000	140.960000	-7.436300	-18.173000	1
54.219000	141.010000	-7.792900	-18.173000	1
54.249000	141.060000	-7.105600	-18.173000	1
54.279000	141.120000	-7.812300	-18.173000	1
54.309000	141.180000	-7.461600	-18.173000	1
54.338000	141.230000	-8.486300	-18.173000	1
54.368000	141.290000	-8.135700	-18.173000	1
54.398000	141.340000	-7.104700	-18.173000	1
54.428000	141.400000	-7.458200	-18.173000	1
54.458000	141.450000	-7.135200	-18.173000	1
54.488000	141.510000	-7.436400	-18.173000	1
54.517000	141.560000	-7.471100	-18.173000	1
54.547000	141.620000	-8.150000	-18.173000	1
54.577000	141.670000	-7.793200	-18.173000	1
54.607000	141.730000	-7.122100	-18.173000	1
54.636000	141.790000	-8.486900	-18.173000	1
54.666000	141.840000	-7.437700	-18.173000	1
54.696000	141.900000	-8.127900	-18.173000	1
54.725000	141.950000	-8.842200	-18.173000	1
54.755000	142.010000	-8.490500	-18.174000	1
54.784000	142.070000	-6.745900	-18.173000	1
54.814000	142.120000	-7.436000	-18.174000	1
54.843000	142.180000	-8.134100	-18.173000	1
54.872000	142.240000	-7.443000	-18.174000	1
54.902000	142.290000	-8.125300	-18.174000	1
54.931000	142.350000	-8.842700	-18.174000	1
54.961000	142.410000	-8.151700	-18.174000	1
54.990000	142.470000	-8.825300	-18.174000	1
55.019000	142.520000	-9.179400	-18.174000	1
55.048000	142.580000	-9.178500	-18.174000	1
55.078000	142.640000	-6.760600	-18.174000	1
55.107000	142.690000	-6.743600	-18.174000	1
55.136000	142.750000	-5.728400	-18.174000	1
55.165000	142.810000	-6.742000	-18.174000	1
55.194000	142.870000	-5.734300	-18.174000	1
55.223000	142.920000	-5.393300	-18.174000	1
55.252000	142.980000	-7.090000	-18.174000	1
55.281000	143.040000	-7.795400	-18.174000	1
55.310000	143.100000	-9.152000	-18.174000	1
55.339000	143.160000	-9.867100	-18.174000	1
55.368000	143.220000	-7.430000	-18.174000	1
55.397000	143.270000	-6.414700	-18.174000	1
55.426000	143.330000	-7.444300	-18.174000	1
55.454000	143.390000	-4.675600	-18.174000	1
55.483000	143.450000	-7.426500	-18.174000	1
55.512000	143.510000	-7.084000	-18.174000	1
55.541000	143.570000	-6.410100	-18.174000	1
55.569000	143.620000	-5.357500	-18.174000	1
55.598000	143.680000	-4.670000	-18.174000	1
55.626000	143.740000	-5.014200	-18.174000	1
55.655000	143.800000	-6.053700	-18.174000	1
55.684000	143.860000	-6.051500	-18.174000	1
55.712000	143.920000	-5.714100	-18.174000	1
55.741000	143.980000	-4.665100	-18.175000	1
55.769000	144.040000	-4.685300	-18.174000	1
55.798000	144.100000	-6.047700	-18.174000	1
55.826000	144.160000	-7.091000	-18.175000	1
55.854000	144.220000	-9.484900	-18.175000	1
55.883000	144.280000	-8.793300	-18.174000	1
55.911000	144.340000	-7.765200	-18.175000	1
55.939000	144.400000	-6.724000	-18.175000	1
55.967000	144.460000	-6.727700	-18.175000	1
55.995000	144.520000	-6.059000	-18.175000	1
56.024000	144.580000	-7.415500	-18.175000	1
56.052000	144.640000	-5.003400	-18.175000	1
56.080000	144.700000	-4.322500	-18.175000	1
56.108000	144.760000	-3.631600	-18.175000	1
56.136000	144.820000	-2.933500	-18.175000	1
56.164000	144.880000	-2.940300	-18.175000	1
56.192000	144.940000	-3.276000	-18.175000	1
56.220000	145.000000	-2.939100	-18.175000	1
56.248000	145.060000	-0.188580	-18.175000	1
56.276000	145.130000	1.188300	-18.175000	1
56.303000	145.190000	-0.527640	-18.175000	1
56.331000	145.250000	-3.281500	-18.175000	1
56.359000	145.310000	-3.648400	-18.175000	1
56.387000	145.370000	-2.936700	-18.175000	1
56.414000	145.430000	-3.971300	-18.175000	1
56.442000	145.490000	-2.589200	-18.175000	1
56.470000	145.560000	-4.315700	-18.175000	1
56.497000	145.620000	-4.318900	-18.175000	1
56.525000	145.680000	0.163800	-18.175000	1
56.552000	145.740000	-2.936300	-18.175000	1
56.580000	145.800000	-1.903100	-18.175000	1
56.607000	145.870000	-4.314400	-18.175000	1
56.635000	145.930000	-4.654000	-18.175000	1
56.662000	145.990000	-3.963300	-18.175000	1
56.689000	146.050000	-4.316800	-18.175000	1
56.717000	146.120000	-3.955100	-18.175000	1
56.744000	146.180000	-3.931100	-18.175000	1
56.771000	146.240000	-2.931500	-18.175000	1
56.798000	146.310000	-2.233400	-18.175000	1
56.825000	146.370000	-0.148890	-18.175000	1
56.853000	146.430000	0.867960	-18.175000	1
56.880000	146.490000	0.860850	-18.175000	1
56.907000	146.560000	0.167360	-18.175000	1
56.934000	146.620000	1.197000	-18.176000	1
56.961000	146.690000	1.541100	-18.176000	1
56.988000	146.750000	-0.151330	-18.176000	1
57.015000	146.810000	-3.276700	-18.176000	1
57.041000	146.880000	-3.637900	-18.176000	1
57.068000	146.940000	-2.947200	-18.176000	1
57.095000	147.000000	-1.209000	-18.176000	1
57.122000	147.070000	-0.518650	-18.176000	1
57.149000	147.130000	1.549300	-18.176000	1
57.175000	147.200000	1.202100	-18.176000	1
57.202000	147.260000	1.893500	-18.176000	1
57.229000	147.330000	2.230100	-18.176000	1
57.255000	147.390000	2.237700	-18.176000	1
57.282000	147.450000	0.864170	-18.176000	1
57.308000	147.520000	0.535520	-18.176000	1
57.335000	147.580000	0.864680	-18.176000	1
57.361000	147.650000	-1.524400	-18.176000	1
57.388000	147.710000	-4.629700	-18.176000	1
57.414000	147.780000	-5.337200	-18.176000	1
57.440000	147.850000	-5.319400	-18.176000	1
57.466000	147.910000	-3.963400	-18.176000	1
57.493000	147.980000	-4.327000	-18.176000	1
57.519000	148.040000	-4.667100	-18.176000	1
57.545000	148.110000	-6.371300	-18.176000	1
57.571000	148.170000	-6.689200	-18.176000	1
57.597000	148.240000	-4.652600	-18.176000	1
57.623000	148.300000	-4.971300	-18.176000	1
57.649000	148.370000	-3.940800	-18.176000	1
57.675000	148.440000	-3.600500	-18.176000	1
57.701000	148.500000	-3.936700	-18.176000	1
57.727000	148.570000	-4.635100	-18.176000	1
57.753000	148.640000	-3.604400	-18.176000	1
57.779000	148.700000	1.566800	-18.176000	1
57.805000	148.770000	-1.189600	-18.176000	1
57.830000	148.840000	-0.860410	-18.176000	1
57.856000	148.900000	0.877470	-18.176000	1
57.882000	148.970000	-7.037500	-18.176000	1
57.907000	149.040000	-7.044900	-18.176000	1
57.933000	149.100000	-6.350300	-18.176000	1
56.204000	144.830000	-3.109300	-17.417000	1
56.232000	144.890000	-0.355410	-17.417000	1
56.260000	144.950000	-3.101800	-17.417000	1
56.287000	145.010000	-2.070900	-17.418000	1
56.315000	145.070000	-3.100700	-17.417000	1
56.343000	145.130000	0.336840	-17.418000	1
56.371000	145.190000	-1.035400	-17.418000	1
56.399000	145.250000	-1.718700	-17.418000	1
56.427000	145.320000	-2.070800	-17.418000	1
56.454000	145.380000	1.722800	-17.418000	1
56.482000	145.440000	0.336870	-17.418000	1
56.510000	145.500000	-3.444300	-17.418000	1
56.537000	145.560000	-3.416300	-17.418000	1
56.565000	145.620000	-2.070400	-17.418000	1
56.592000	145.690000	-3.409200	-17.418000	1
56.620000	145.750000	-4.130200	-17.418000	1
56.647000	145.810000	-5.850600	-17.418000	1
56.675000	145.870000	-5.166100	-17.418000	1
56.702000	145.940000	-5.478300	-17.418000	1
56.729000	146.000000	-4.787800	-17.418000	1
56.757000	146.060000	-5.855200	-17.418000	1
56.784000	146.120000	-6.507700	-17.418000	1
56.811000	146.190000	-5.476800	-17.418000	1
56.839000	146.250000	-4.798700	-17.418000	1
56.866000	146.310000	-3.447300	-17.418000	1
56.893000	146.380000	0.371440	-17.418000	1
56.920000	146.440000	0.025504	-17.418000	1
56.947000	146.500000	-0.005344	-17.418000	1
56.974000	146.570000	1.752700	-17.418000	1
57.001000	146.630000	1.746800	-17.418000	1
57.028000	146.690000	0.341940	-17.418000	1
57.055000	146.760000	-3.794900	-17.418000	1
57.082000	146.820000	-4.874100	-17.418000	1
57.109000	146.890000	-2.426500	-17.418000	1
57.136000	146.950000	-3.456500	-17.418000	1
57.163000	147.010000	1.328500	-17.418000	1
57.189000	147.080000	0.978700	-17.418000	1
57.216000	147.140000	2.359100	-17.418000	1
57.243000	147.210000	1.328000	-17.418000	1
57.269000	147.270000	2.043300	-17.418000	1
57.296000	147.340000	-2.122900	-17.418000	1
57.323000	147.400000	-4.502200	-17.418000	1
57.349000	147.460000	-3.809000	-17.418000	1
57.376000	147.530000	-4.499100	-17.418000	1
57.402000	147.590000	-5.524300	-17.418000	1
57.428000	147.660000	-5.517800	-17.418000	1
57.455000	147.730000	-5.178700	-17.418000	1
57.481000	147.790000	-3.120200	-17.418000	1
57.508000	147.860000	-4.826900	-17.418000	1
57.534000	147.920000	-4.150000	-17.419000	1
57.560000	147.990000	-4.136100	-17.419000	1
57.586000	148.050000	-4.486200	-17.419000	1
57.612000	148.120000	-4.135800	-17.419000	1
57.639000	148.180000	-4.841500	-17.419000	1
57.665000	148.250000	-4.140000	-17.419000	1
57.691000	148.320000	-5.526500	-17.419000	1
57.717000	148.380000	-4.841000	-17.419000	1
57.743000	148.450000	-3.799200	-17.419000	1
57.769000	148.520000	-3.812700	-17.419000	1
57.794000	148.580000	-5.171800	-17.419000	1
57.820000	148.650000	-2.772100	-17.419000	1
57.846000	148.720000	1.699000	-17.419000	1
57.872000	148.780000	1.713000	-17.419000	1
57.898000	148.850000	-6.208900	-17.419000	1
57.923000	148.920000	-6.900500	-17.419000	1
57.949000	148.980000	-5.524400	-17.419000	1
57.975000	149.050000	-5.528500	-17.419000	1
58.000000	149.120000	-4.491500	-17.419000	1
58.026000	149.180000	-3.464700	-17.419000	1
56.299000	144.890000	-0.351510	-16.655000	1
56.327000	144.950000	-3.113900	-16.655000	1
56.355000	145.010000	-0.717930	-16.655000	1
56.383000	145.080000	-1.373800	-16.655000	1
56.411000	145.140000	-0.026798	-16.655000	1
56.439000	145.200000	-1.722200	-16.655000	1
56.466000	145.260000	0.337280	-16.655000	1
56.494000	145.320000	0.325330	-16.655000	1
56.522000	145.380000	-2.438500	-16.655000	1
56.549000	145.440000	-3.464500	-16.655000	1
56.577000	145.510000	-4.154400	-16.655000	1
56.605000	145.570000	-3.803700	-16.655000	1
56.632000	145.630000	-4.469800	-16.655000	1
56.660000	145.690000	-3.112700	-16.655000	1
56.687000	145.760000	-5.860900	-16.655000	1
56.715000	145.820000	-6.903500	-16.656000	1
56.742000	145.880000	-4.845900	-16.655000	1
56.770000	145.940000	-4.127600	-16.655000	1
56.797000	146.010000	-5.186000	-16.655000	1
56.824000	146.070000	-4.849200	-16.655000	1
56.852000	146.130000	-5.189000	-16.655000	1
56.879000	146.190000	-6.886800	-16.656000	1
56.906000	146.260000	-4.154000	-16.655000	1
56.933000	146.320000	-3.779700	-16.656000	1
56.960000	146.380000	-2.436500	-16.656000	1
56.987000	146.450000	2.060800	-16.656000	1
57.015000	146.510000	2.762500	-16.656000	1
57.042000	146.570000	1.015200	-16.656000	1
57.069000	146.640000	0.002872	-16.656000	1
57.096000	146.700000	-0.020524	-16.656000	1
57.123000	146.770000	-2.403500	-16.656000	1
57.149000	146.830000	-3.080600	-16.656000	1
57.176000	146.890000	2.078000	-16.656000	1
57.203000	146.960000	0.021867	-16.656000	1
57.230000	147.020000	-2.770300	-16.656000	1
57.257000	147.090000	-1.739800	-16.656000	1
57.283000	147.150000	-5.833600	-16.656000	1
57.310000	147.220000	-4.816400	-16.656000	1
57.337000	147.280000	-4.123700	-16.656000	1
57.363000	147.350000	-2.769200	-16.656000	1
57.390000	147.410000	-3.082700	-16.656000	1
57.416000	147.470000	-4.463000	-16.656000	1
57.443000	147.540000	-5.155500	-16.656000	1
57.469000	147.610000	-4.122300	-16.656000	1
57.496000	147.670000	-3.798300	-16.656000	1
57.522000	147.740000	-2.427600	-16.656000	1
57.549000	147.800000	-2.432000	-16.656000	1
57.575000	147.870000	-5.156500	-16.656000	1
57.601000	147.930000	-2.405300	-16.656000	1
57.627000	148.000000	-2.771600	-16.656000	1
57.654000	148.060000	-5.182000	-16.656000	1
57.680000	148.130000	-3.763900	-16.656000	1
57.706000	148.200000	-4.465200	-16.656000	1
57.732000	148.260000	-4.491300	-16.656000	1
57.758000	148.330000	-4.467200	-16.656000	1
57.784000	148.390000	-3.763300	-16.656000	1
57.810000	148.460000	-3.088900	-16.656000	1
57.836000	148.530000	-3.422600	-16.656000	1
57.862000	148.590000	-3.762500	-16.656000	1
55.134000	142.350000	-5.789400	-15.896000	1
55.163000	142.410000	-5.465200	-15.896000	1
55.192000	142.470000	-6.811700	-15.896000	1
55.222000	142.520000	-5.787900	-15.896000	1
55.251000	142.580000	-5.107000	-15.896000	1
55.280000	142.640000	-4.738500	-15.897000	1
55.309000	142.700000	-6.152100	-15.897000	1
55.338000	142.760000	-7.147700	-15.897000	1
55.367000	142.810000	-4.395600	-15.897000	1
55.396000	142.870000	-6.115500	-15.897000	1
55.426000	142.930000	-7.839600	-15.897000	1
55.455000	142.990000	-4.770800	-15.897000	1
55.484000	143.050000	-6.819500	-15.897000	1
55.512000	143.100000	-4.395100	-15.897000	1
55.541000	143.160000	-6.826400	-15.897000	1
55.570000	143.220000	-6.800300	-15.897000	1
55.599000	143.280000	-6.453000	-15.897000	1
55.628000	143.340000	-6.452000	-15.897000	1
55.657000	143.400000	-5.756900	-15.897000	1
55.686000	143.460000	-6.147200	-15.897000	1
55.714000	143.510000	-6.112600	-15.897000	1
55.743000	143.570000	-5.421300	-15.897000	1
55.772000	143.630000	-5.416600	-15.897000	1
55.800000	143.690000	-6.812600	-15.897000	1
55.829000	143.750000	-6.437700	-15.897000	1
55.857000	143.810000	-6.794200	-15.897000	1
55.886000	143.870000	-6.446900	-15.897000	1
55.915000	143.930000	-5.404000	-15.897000	1
55.943000	143.990000	-5.403100	-15.897000	1
55.971000	144.050000	-6.828100	-15.897000	1
56.000000	144.110000	-7.466400	-15.897000	1
56.028000	144.170000	-8.854200	-15.897000	1
56.057000	144.230000	-7.131800	-15.897000	1
56.085000	144.290000	-6.092800	-15.897000	1
56.113000	144.350000	-7.130000	-15.897000	1
56.141000	144.410000	-6.438800	-15.897000	1
56.170000	144.470000	-6.454000	-15.897000	1
56.198000	144.530000	-4.375000	-15.897000	1
56.226000	144.590000	-4.041900	-15.897000	1
56.254000	144.650000	-2.658400	-15.897000	1
56.282000	144.710000	-4.374500	-15.897000	1
56.310000	144.780000	-3.318500	-15.897000	1
56.338000	144.840000	-0.250670	-15.897000	1
56.366000	144.900000	0.443800	-15.897000	1
56.394000	144.960000	0.119280	-15.897000	1
56.422000	145.020000	1.825000	-15.897000	1
56.450000	145.080000	-1.586100	-15.898000	1
56.478000	145.140000	-0.582960	-15.898000	1
56.506000	145.200000	-2.296600	-15.898000	1
56.533000	145.270000	-2.319700	-15.898000	1
56.561000	145.330000	-4.706200	-15.898000	1
56.589000	145.390000	-4.371900	-15.898000	1
56.616000	145.450000	-5.735700	-15.898000	1
56.644000	145.510000	-7.115900	-15.898000	1
56.672000	145.580000	-3.663700	-15.898000	1
56.699000	145.640000	-1.279000	-15.898000	1
56.727000	145.700000	0.796720	-15.898000	1
56.754000	145.760000	-4.707800	-15.898000	1
56.782000	145.830000	-5.050000	-15.898000	1
56.809000	145.890000	-4.373100	-15.898000	1
56.837000	145.950000	-4.040100	-15.898000	1
56.864000	146.010000	-3.699700	-15.898000	1
56.891000	146.080000	-5.736100	-15.898000	1
56.919000	146.140000	-5.055400	-15.898000	1
56.946000	146.200000	-4.711300	-15.898000	1
56.973000	146.270000	-3.674300	-15.898000	1
57.000000	146.330000	-1.932200	-15.898000	1
57.027000	146.390000	2.870400	-15.898000	1
57.054000	146.460000	3.574500	-15.898000	1
57.081000	146.520000	0.460880	-15.898000	1
57.109000	146.580000	-3.995900	-15.898000	1
57.136000	146.650000	-5.743700	-15.898000	1
57.163000	146.710000	-5.373500	-15.898000	1
57.189000	146.780000	-3.988900	-15.898000	1
57.216000	146.840000	-2.924500	-15.898000	1
57.243000	146.900000	-2.271500	-15.898000	1
57.270000	146.970000	-1.539700	-15.898000	1
57.297000	147.030000	-3.613500	-15.898000	1
57.324000	147.100000	-4.341000	-15.898000	1
57.350000	147.160000	-5.024900	-15.898000	1
57.377000	147.230000	-2.922700	-15.898000	1
57.404000	147.290000	-2.616100	-15.898000	1
57.430000	147.360000	-3.269300	-15.898000	1
57.457000	147.420000	-3.304100	-15.898000	1
57.483000	147.490000	-3.612600	-15.898000	1
57.510000	147.550000	-4.302700	-15.898000	1
57.536000	147.620000	-2.928200	-15.898000	1
57.563000	147.680000	-3.958400	-15.898000	1
57.589000	147.750000	-2.235300	-15.898000	1
57.615000	147.810000	-2.927700	-15.898000	1
57.642000	147.880000	-2.585000	-15.899000	1
57.668000	147.940000	-1.207000	-15.898000	1
57.694000	148.010000	-3.261000	-15.898000	1
57.720000	148.080000	-4.304900	-15.898000	1
57.746000	148.140000	-2.230400	-15.898000	1
57.773000	148.210000	-5.368800	-15.899000	1
57.799000	148.270000	-4.308900	-15.898000	1
57.825000	148.340000	-4.682600	-15.898000	1
57.851000	148.410000	-4.994900	-15.899000	1
52.191000	137.140000	-6.197300	-15.138000	1
52.223000	137.190000	-3.457300	-15.138000	1
52.255000	137.240000	-5.869100	-15.138000	1
52.287000	137.290000	-5.183200	-15.138000	1
52.319000	137.340000	-4.488900	-15.138000	1
52.351000	137.390000	-5.182600	-15.139000	1
52.383000	137.440000	-4.134200	-15.139000	1
52.414000	137.490000	-2.080300	-15.139000	1
52.446000	137.540000	-3.804300	-15.139000	1
52.478000	137.590000	-4.822700	-15.139000	1
52.510000	137.640000	-5.516500	-15.139000	1
52.541000	137.690000	-5.162300	-15.139000	1
52.573000	137.740000	-4.471700	-15.139000	1
52.605000	137.790000	-6.174500	-15.139000	1
52.636000	137.840000	-7.214800	-15.139000	1
52.668000	137.890000	-6.881700	-15.139000	1
52.700000	137.940000	-5.833300	-15.139000	1
52.731000	137.990000	-6.173100	-15.139000	1
52.763000	138.040000	-3.425100	-15.139000	1
52.794000	138.090000	-7.570200	-15.139000	1
52.826000	138.140000	-6.171500	-15.139000	1
52.857000	138.190000	-5.852400	-15.139000	1
52.889000	138.240000	-5.848200	-15.139000	1
52.920000	138.290000	-5.847900	-15.139000	1
52.951000	138.350000	-5.528700	-15.139000	1
52.983000	138.400000	-7.213800	-15.139000	1
53.014000	138.450000	-4.108500	-15.139000	1
53.046000	138.500000	-3.761900	-15.139000	1
53.077000	138.550000	-5.849300	-15.139000	1
53.108000	138.600000	-5.844000	-15.139000	1
53.139000	138.650000	-6.525400	-15.139000	1
53.171000	138.710000	-7.217700	-15.139000	1
53.202000	138.760000	-5.502700	-15.139000	1
53.233000	138.810000	-7.555800	-15.139000	1
53.264000	138.860000	-6.182300	-15.139000	1
53.295000	138.910000	-7.890500	-15.139000	1
53.326000	138.960000	-7.209600	-15.139000	1
53.357000	139.020000	-5.837400	-15.139000	1
53.388000	139.070000	-5.837300	-15.139000	1
53.419000	139.120000	-6.534500	-15.139000	1
53.450000	139.170000	-6.178000	-15.139000	1
53.481000	139.230000	-6.883200	-15.139000	1
53.512000	139.280000	-5.497200	-15.139000	1
53.543000	139.330000	-5.848500	-15.139000	1
53.574000	139.380000	-5.843300	-15.139000	1
53.605000	139.440000	-6.183300	-15.140000	1
53.636000	139.490000	-5.842700	-15.139000	1
53.667000	139.540000	-5.838400	-15.140000	1
53.697000	139.600000	-6.526000	-15.140000	1
53.728000	139.650000	-5.833900	-15.140000	1
53.759000	139.700000	-5.836700	-15.140000	1
53.790000	139.750000	-5.503800	-15.140000	1
53.820000	139.810000	-6.521500	-15.140000	1
53.851000	139.860000	-6.533100	-15.140000	1
53.881000	139.920000	-4.488400	-15.140000	1
53.912000	139.970000	-4.470300	-15.140000	1
53.943000	140.020000	-2.430500	-15.140000	1
53.973000	140.080000	-2.733300	-15.140000	1
54.004000	140.130000	-7.216700	-15.140000	1
54.034000	140.180000	-7.556700	-15.140000	1
54.065000	140.240000	-7.211900	-15.140000	1
54.095000	140.290000	-8.217800	-15.140000	1
54.125000	140.350000	-7.222000	-15.140000	1
54.156000	140.400000	-7.213900	-15.140000	1
54.186000	140.450000	-7.213400	-15.140000	1
54.216000	140.510000	-5.142000	-15.140000	1
54.247000	140.560000	-6.522400	-15.140000	1
54.277000	140.620000	-6.834700	-15.140000	1
54.307000	140.670000	-5.463900	-15.140000	1
54.337000	140.730000	-5.847800	-15.140000	1
54.368000	140.780000	-7.131900	-15.140000	1
54.398000	140.840000	-5.754700	-15.140000	1
54.428000	140.890000	-7.494100	-15.140000	1
54.458000	140.950000	-7.477700	-15.140000	1
54.488000	141.000000	-7.817800	-15.140000	1
54.518000	141.060000	-7.134600	-15.140000	1
54.548000	141.110000	-7.162800	-15.140000	1
54.578000	141.170000	-7.480000	-15.140000	1
