La	Lo	Sig	Theta	Ice
48.319000	133.130000	-5.097400	-10.598000	1
48.284000	133.170000	-4.063700	-10.598000	1
48.250000	133.210000	-4.064000	-10.598000	1
48.215000	133.250000	-3.350300	-10.598000	1
48.180000	133.290000	-2.684300	-10.598000	1
48.146000	133.340000	0.068789	-10.598000	1
48.111000	133.380000	0.780890	-10.598000	1
48.076000	133.420000	0.780710	-10.598000	1
48.042000	133.460000	-4.730300	-10.598000	1
48.007000	133.500000	-3.690300	-10.598000	1
47.972000	133.540000	-4.066800	-10.598000	1
47.937000	133.580000	-4.040900	-10.598000	1
47.903000	133.620000	-3.377000	-10.598000	1
47.868000	133.660000	-2.661000	-10.598000	1
47.833000	133.700000	-4.041500	-10.598000	1
47.798000	133.740000	-3.714000	-10.598000	1
47.763000	133.780000	-3.034200	-10.598000	1
47.729000	133.820000	-4.055900	-10.598000	1
47.694000	133.860000	-3.349200	-10.598000	1
47.659000	133.900000	-3.363300	-10.597000	1
47.624000	133.940000	-2.319400	-10.598000	1
47.589000	133.980000	-3.372200	-10.598000	1
47.554000	134.020000	-1.969900	-10.598000	1
47.519000	134.060000	-2.660200	-10.598000	1
47.484000	134.100000	-1.630300	-10.597000	1
47.449000	134.140000	-3.024500	-10.598000	1
47.414000	134.180000	-3.094800	-10.597000	1
47.379000	134.220000	-3.071300	-10.597000	1
47.344000	134.260000	-2.381400	-10.597000	1
47.309000	134.300000	-3.411800	-10.597000	1
47.274000	134.330000	-4.442200	-10.597000	1
48.824000	132.800000	-5.205300	-8.331800	1
48.789000	132.840000	-4.515500	-8.331800	1
48.755000	132.880000	-2.795500	-8.331900	1
48.720000	132.920000	-3.452000	-8.331900	1
48.686000	132.970000	-2.799700	-8.332000	1
48.651000	133.010000	-4.142500	-8.332100	1
48.617000	133.050000	-3.102700	-8.331900	1
48.582000	133.090000	-3.102900	-8.331900	1
48.548000	133.130000	-2.763000	-8.332100	1
48.513000	133.170000	-3.137200	-8.331900	1
48.478000	133.210000	-2.760600	-8.331800	1
48.444000	133.250000	-3.828500	-8.332000	1
48.409000	133.290000	-3.824900	-8.332000	1
48.375000	133.340000	-3.791300	-8.332100	1
48.340000	133.380000	-3.825400	-8.332100	1
48.305000	133.420000	-3.825700	-8.331900	1
48.271000	133.460000	-3.489700	-8.332000	1
48.236000	133.500000	-2.762200	-8.332000	1
48.201000	133.540000	-2.450100	-8.331800	1
48.166000	133.580000	-0.012561	-8.331900	1
48.132000	133.620000	-1.420500	-8.331700	1
48.097000	133.660000	-3.490900	-8.331900	1
48.062000	133.700000	-2.801100	-8.331900	1
48.027000	133.740000	-3.138400	-8.331700	1
47.992000	133.780000	-3.484800	-8.332000	1
47.958000	133.820000	-1.418600	-8.331900	1
47.923000	133.860000	-1.768800	-8.332000	1
47.888000	133.900000	-1.752800	-8.332000	1
47.853000	133.940000	-2.109400	-8.331800	1
47.818000	133.980000	-2.105700	-8.332100	1
47.783000	134.020000	-1.403500	-8.331900	1
47.748000	134.060000	-2.433900	-8.331700	1
47.713000	134.100000	-2.784100	-8.331900	1
47.678000	134.140000	-2.800500	-8.332000	1
47.643000	134.180000	-1.754400	-8.331800	1
47.608000	134.220000	-1.064600	-8.331900	1
47.573000	134.260000	-1.401800	-8.331700	1
47.538000	134.300000	-2.108200	-8.331800	1
47.503000	134.340000	-1.422300	-8.331700	1
47.468000	134.380000	-2.802700	-8.331500	1
47.433000	134.420000	-0.052643	-8.331600	1
47.398000	134.460000	-4.527200	-8.331500	1
48.854000	132.850000	-3.093200	-7.575500	1
48.819000	132.900000	0.006743	-7.575500	1
48.785000	132.940000	0.696580	-7.575600	1
48.750000	132.980000	-2.403900	-7.575600	1
48.716000	133.020000	-3.784200	-7.575700	1
48.681000	133.060000	-4.124400	-7.575800	1
48.647000	133.100000	-3.108400	-7.575600	1
48.612000	133.140000	-0.008354	-7.575600	1
48.578000	133.190000	1.021500	-7.575800	1
48.543000	133.230000	-1.712200	-7.575600	1
48.508000	133.270000	-2.742600	-7.575600	1
48.474000	133.310000	-2.756500	-7.575700	1
48.439000	133.350000	-3.110500	-7.575700	1
48.404000	133.390000	-2.080600	-7.575800	1
48.370000	133.430000	-2.420900	-7.575800	1
48.335000	133.470000	-2.417500	-7.575600	1
48.300000	133.510000	-1.391400	-7.575700	1
48.266000	133.550000	-2.421700	-7.575700	1
48.231000	133.590000	-3.108300	-7.575500	1
48.196000	133.630000	2.741900	-7.575600	1
48.161000	133.670000	2.397700	-7.575400	1
48.127000	133.720000	-1.732600	-7.575600	1
48.092000	133.760000	-2.079900	-7.575600	1
48.057000	133.800000	-2.080200	-7.575500	1
48.022000	133.840000	-2.420300	-7.575700	1
47.987000	133.880000	-1.390600	-7.575600	1
47.952000	133.920000	-1.390700	-7.575700	1
47.917000	133.960000	-1.390900	-7.575700	1
47.882000	134.000000	-0.701180	-7.575500	1
47.848000	134.040000	-1.385100	-7.575800	1
47.813000	134.080000	-2.081700	-7.575600	1
47.778000	134.120000	-1.725700	-7.575500	1
47.743000	134.160000	-1.385900	-7.575600	1
47.708000	134.200000	-2.076100	-7.575700	1
47.673000	134.240000	-1.386300	-7.575500	1
47.638000	134.280000	-2.073500	-7.575600	1
47.603000	134.310000	-2.413800	-7.575400	1
47.567000	134.350000	-1.033800	-7.575600	1
47.532000	134.390000	-0.724100	-7.575400	1
47.497000	134.430000	-1.058200	-7.575200	1
47.462000	134.470000	0.655480	-7.575300	1
47.427000	134.510000	-1.408700	-7.575200	1
47.392000	134.550000	-2.779000	-7.575300	1
48.884000	132.910000	-3.179800	-6.821500	1
48.849000	132.950000	-2.500000	-6.821500	1
48.815000	132.990000	-1.473800	-6.821600	1
48.780000	133.030000	-1.824100	-6.821600	1
48.746000	133.070000	-0.104150	-6.821600	1
48.711000	133.120000	-0.780610	-6.821800	1
48.677000	133.160000	-1.134700	-6.821600	1
48.642000	133.200000	-0.444880	-6.821600	1
48.607000	133.240000	-1.132000	-6.821800	1
48.573000	133.280000	0.587720	-6.821600	1
48.538000	133.320000	-0.102600	-6.821600	1
48.503000	133.360000	-2.162900	-6.821700	1
48.469000	133.400000	-2.839500	-6.821700	1
48.434000	133.440000	-0.793190	-6.821800	1
48.399000	133.490000	-1.473600	-6.821800	1
48.365000	133.530000	-0.447560	-6.821600	1
48.330000	133.570000	-1.137800	-6.821700	1
48.295000	133.610000	-1.138000	-6.821700	1
48.260000	133.650000	-2.164700	-6.821600	1
48.226000	133.690000	-1.478600	-6.821600	1
48.191000	133.730000	2.651300	-6.821400	1
48.156000	133.770000	-1.472200	-6.821600	1
48.121000	133.810000	-1.826300	-6.821600	1
48.086000	133.850000	-2.166600	-6.821500	1
48.051000	133.890000	-2.166700	-6.821700	1
48.017000	133.930000	-1.827000	-6.821600	1
47.982000	133.970000	-0.797110	-6.821700	1
47.947000	134.010000	-0.797320	-6.821800	1
47.912000	134.050000	-0.797690	-6.821500	1
47.877000	134.090000	-0.797750	-6.821800	1
47.842000	134.130000	-0.821770	-6.821700	1
47.807000	134.170000	-0.132090	-6.821500	1
47.772000	134.210000	-2.192300	-6.821600	1
47.737000	134.250000	-1.502500	-6.821700	1
47.702000	134.290000	0.910450	-6.821600	1
47.667000	134.330000	-0.469790	-6.821600	1
47.632000	134.370000	-0.453820	-6.821500	1
47.597000	134.410000	-0.803980	-6.821600	1
47.561000	134.450000	-0.450530	-6.821500	1
47.526000	134.490000	-1.480900	-6.821300	1
47.491000	134.530000	0.565290	-6.821400	1
47.456000	134.570000	-1.495100	-6.821300	1
47.421000	134.600000	-2.521700	-6.821300	1
48.844000	133.050000	-2.809900	-6.067200	1
48.810000	133.090000	-1.090100	-6.067200	1
48.775000	133.130000	-0.060187	-6.067300	1
48.741000	133.170000	-1.090400	-6.067400	1
48.706000	133.210000	-1.780700	-6.067300	1
48.672000	133.250000	-2.117300	-6.067300	1
48.637000	133.290000	0.292010	-6.067400	1
48.602000	133.330000	0.971710	-6.067300	1
48.568000	133.380000	0.291410	-6.067200	1
48.533000	133.420000	-0.372510	-6.067300	1
48.498000	133.460000	0.997300	-6.067300	1
48.464000	133.500000	-2.465600	-6.067500	1
48.429000	133.540000	0.290540	-6.067400	1
48.394000	133.580000	0.316490	-6.067300	1
48.359000	133.620000	0.656350	-6.067400	1
48.325000	133.660000	0.656060	-6.067300	1
48.290000	133.700000	-3.160800	-6.067200	1
48.255000	133.740000	2.035600	-6.067300	1
48.220000	133.780000	1.345200	-6.067100	1
48.185000	133.820000	4.098200	-6.067300	1
48.150000	133.860000	-0.372210	-6.067200	1
48.116000	133.900000	-1.412500	-6.067100	1
48.081000	133.940000	-2.092700	-6.067400	1
48.046000	133.980000	-0.372910	-6.067200	1
48.011000	134.020000	0.656960	-6.067400	1
47.976000	134.060000	-0.373290	-6.067400	1
47.941000	134.100000	-0.373660	-6.067200	1
47.906000	134.140000	0.622630	-6.067500	1
47.871000	134.180000	-0.724030	-6.067300	1
47.836000	134.220000	-0.068027	-6.067100	1
47.801000	134.260000	-0.374520	-6.067300	1
47.766000	134.300000	-0.068369	-6.067300	1
47.731000	134.340000	-1.061900	-6.067200	1
47.696000	134.380000	-1.095800	-6.067300	1
47.661000	134.420000	0.623990	-6.067100	1
47.626000	134.460000	0.283860	-6.067300	1
47.590000	134.500000	-0.416460	-6.067100	1
47.555000	134.540000	-1.106800	-6.067000	1
47.520000	134.580000	3.363100	-6.067000	1
47.485000	134.620000	-2.481100	-6.066900	1
47.450000	134.660000	-1.101200	-6.067000	1
48.770000	133.220000	-1.759600	-5.312700	1
48.736000	133.270000	-1.409900	-5.312600	1
48.701000	133.310000	-0.720140	-5.312500	1
48.666000	133.350000	-0.027219	-5.312700	1
48.632000	133.390000	0.312450	-5.312500	1
48.597000	133.430000	1.002200	-5.312500	1
48.562000	133.470000	1.342000	-5.312600	1
48.528000	133.510000	1.341800	-5.312500	1
48.493000	133.550000	1.691600	-5.312800	1
48.458000	133.590000	1.027700	-5.312700	1
48.423000	133.630000	1.367300	-5.312500	1
48.389000	133.670000	1.027200	-5.312700	1
48.354000	133.720000	0.676870	-5.312600	1
48.319000	133.760000	-0.693480	-5.312500	1
48.284000	133.800000	-0.353680	-5.312500	1
48.249000	133.840000	3.749700	-5.312300	1
48.215000	133.880000	3.439000	-5.312600	1
48.180000	133.920000	-0.027713	-5.312500	1
48.145000	133.960000	-0.001633	-5.312400	1
48.110000	134.000000	-0.691760	-5.312600	1
48.075000	134.040000	-0.692130	-5.312500	1
48.040000	134.080000	0.664130	-5.312700	1
48.005000	134.120000	1.013900	-5.312700	1
47.970000	134.160000	-0.706550	-5.312500	1
47.935000	134.200000	1.353500	-5.312800	1
47.900000	134.240000	0.663160	-5.312600	1
47.865000	134.280000	-0.003559	-5.312400	1
47.830000	134.320000	-0.017359	-5.312500	1
47.795000	134.360000	-1.043900	-5.312600	1
47.760000	134.400000	0.665310	-5.312500	1
47.725000	134.440000	0.325120	-5.312500	1
47.690000	134.480000	0.664830	-5.312400	1
47.654000	134.520000	-0.015318	-5.312600	1
47.619000	134.550000	-0.065594	-5.312400	1
47.584000	134.590000	0.964100	-5.312300	1
47.549000	134.630000	4.390300	-5.312300	1
47.514000	134.670000	-1.460200	-5.312200	1
47.479000	134.710000	-1.460300	-5.312300	1
47.443000	134.750000	-2.840600	-5.312300	1
48.869000	133.200000	-0.894250	-4.557900	1
48.834000	133.240000	-0.544400	-4.557900	1
48.800000	133.280000	0.825570	-4.558100	1
48.765000	133.320000	0.825270	-4.558000	1
48.730000	133.360000	-0.205020	-4.557900	1
48.696000	133.400000	0.487900	-4.558100	1
48.661000	133.440000	0.827550	-4.558000	1
48.626000	133.480000	0.137250	-4.557900	1
48.592000	133.520000	0.487060	-4.558000	1
48.557000	133.570000	2.546800	-4.557900	1
48.522000	133.610000	1.493100	-4.558200	1
48.487000	133.650000	3.236500	-4.558100	1
48.453000	133.690000	3.236100	-4.558000	1
48.418000	133.730000	3.586000	-4.558100	1
48.383000	133.770000	2.205600	-4.558000	1
48.348000	133.810000	-0.204720	-4.557900	1
48.313000	133.850000	0.801530	-4.558000	1
48.278000	133.890000	4.931200	-4.557800	1
48.244000	133.930000	2.184200	-4.558000	1
48.209000	133.970000	1.153800	-4.557900	1
48.174000	134.010000	0.113530	-4.557900	1
48.139000	134.050000	0.463430	-4.558100	1
48.104000	134.090000	0.129460	-4.557900	1
48.069000	134.130000	1.493000	-4.558100	1
48.034000	134.170000	1.509100	-4.558100	1
47.999000	134.210000	2.538800	-4.557900	1
47.964000	134.250000	1.848700	-4.558200	1
47.929000	134.290000	0.128360	-4.558100	1
47.894000	134.330000	1.168000	-4.557900	1
47.859000	134.370000	1.167900	-4.558000	1
47.824000	134.410000	2.197700	-4.558100	1
47.789000	134.450000	0.820550	-4.557900	1
47.753000	134.490000	0.480340	-4.558000	1
47.718000	134.530000	2.540100	-4.557800	1
47.683000	134.570000	1.850000	-4.558000	1
47.648000	134.610000	1.479600	-4.557900	1
47.613000	134.650000	2.875800	-4.557700	1
47.578000	134.690000	2.509100	-4.557800	1
47.542000	134.730000	-0.564860	-4.557600	1
47.507000	134.770000	-2.635100	-4.557800	1
48.933000	133.210000	0.194480	-3.802400	1
48.898000	133.250000	2.264300	-3.802400	1
48.864000	133.290000	0.884080	-3.802400	1
48.829000	133.330000	2.264000	-3.802600	1
48.794000	133.370000	3.293800	-3.802600	1
48.760000	133.410000	2.603500	-3.802500	1
48.725000	133.460000	1.913400	-3.802700	1
48.690000	133.500000	3.636100	-3.802500	1
48.656000	133.540000	3.985800	-3.802400	1
48.621000	133.580000	1.575500	-3.802500	1
48.586000	133.620000	2.955300	-3.802500	1
48.551000	133.660000	1.921700	-3.802700	1
48.517000	133.700000	2.264900	-3.802700	1
48.482000	133.740000	2.954500	-3.802500	1
48.447000	133.780000	2.954400	-3.802700	1
48.412000	133.820000	2.604100	-3.802600	1
48.377000	133.860000	2.960300	-3.802500	1
48.342000	133.900000	1.230100	-3.802500	1
48.307000	133.940000	2.609700	-3.802300	1
48.273000	133.990000	5.359700	-3.802500	1
48.238000	134.030000	3.642400	-3.802400	1
48.203000	134.070000	1.582100	-3.802400	1
48.168000	134.110000	0.891980	-3.802600	1
48.133000	134.150000	2.271700	-3.802500	1
48.098000	134.190000	2.271600	-3.802700	1
48.063000	134.230000	2.271300	-3.802700	1
48.028000	134.270000	1.230900	-3.802500	1
47.993000	134.310000	2.607400	-3.802800	1
47.958000	134.350000	2.957100	-3.802600	1
47.923000	134.390000	2.606700	-3.802400	1
47.888000	134.430000	1.576500	-3.802500	1
47.852000	134.460000	2.606400	-3.802600	1
47.817000	134.500000	2.266100	-3.802500	1
47.782000	134.540000	1.579000	-3.802500	1
47.747000	134.580000	1.918700	-3.802400	1
47.712000	134.620000	1.918600	-3.802600	1
47.677000	134.660000	2.244800	-3.802400	1
47.641000	134.700000	4.638000	-3.802300	1
47.606000	134.740000	-1.195800	-3.802300	1
47.571000	134.780000	-0.166130	-3.802200	1
47.536000	134.820000	-1.196300	-3.802300	1
48.893000	133.350000	0.572800	-3.046600	1
48.858000	133.390000	1.612800	-3.046900	1
48.824000	133.430000	4.362500	-3.046800	1
48.789000	133.470000	3.332200	-3.046700	1
48.754000	133.510000	2.302100	-3.046900	1
48.719000	133.550000	2.641700	-3.046700	1
48.685000	133.590000	5.054500	-3.046700	1
48.650000	133.630000	6.084300	-3.046700	1
48.615000	133.670000	4.364000	-3.046700	1
48.580000	133.710000	2.303900	-3.046900	1
48.546000	133.760000	3.333600	-3.046900	1
48.511000	133.800000	4.363300	-3.046700	1
48.476000	133.840000	2.303200	-3.046900	1
48.441000	133.880000	2.642900	-3.046800	1
48.406000	133.920000	1.589200	-3.046700	1
48.371000	133.960000	2.279000	-3.046700	1
48.336000	134.000000	4.678600	-3.046500	1
48.302000	134.040000	5.718600	-3.046800	1
48.267000	134.080000	2.618200	-3.046700	1
48.232000	134.120000	2.961000	-3.046700	1
48.197000	134.160000	2.620900	-3.046800	1
48.162000	134.200000	3.650600	-3.046700	1
48.127000	134.240000	3.310500	-3.046900	1
48.092000	134.280000	3.650200	-3.046900	1
48.057000	134.320000	2.619800	-3.046700	1
48.021000	134.360000	1.929700	-3.047000	1
47.986000	134.400000	1.916100	-3.046900	1
47.951000	134.440000	2.279000	-3.046700	1
47.916000	134.480000	2.618900	-3.046700	1
47.881000	134.520000	2.605400	-3.046800	1
47.846000	134.560000	3.635100	-3.046700	1
47.811000	134.600000	2.604900	-3.046800	1
47.776000	134.640000	2.267700	-3.046600	1
47.740000	134.680000	3.297600	-3.046800	1
47.705000	134.720000	5.377300	-3.046700	1
47.670000	134.760000	5.037000	-3.046500	1
47.635000	134.790000	-1.843400	-3.046600	1
47.600000	134.830000	-1.847000	-3.046400	1
47.564000	134.870000	0.552930	-3.046600	1
48.922000	133.400000	-2.032600	-2.295400	1
48.887000	133.440000	0.717470	-2.295700	1
48.853000	133.480000	4.847200	-2.295600	1
48.818000	133.520000	4.506900	-2.295500	1
48.783000	133.560000	4.506800	-2.295700	1
48.748000	133.610000	3.476400	-2.295500	1
48.714000	133.650000	3.126100	-2.295500	1
48.679000	133.690000	6.226000	-2.295500	1
48.644000	133.730000	2.788700	-2.295500	1
48.609000	133.770000	4.848600	-2.295700	1
48.574000	133.810000	4.508300	-2.295700	1
48.540000	133.850000	3.128000	-2.295600	1
48.505000	133.890000	1.757900	-2.295700	1
48.470000	133.930000	0.717520	-2.295600	1
48.435000	133.970000	0.674100	-2.295600	1
48.400000	134.010000	2.743900	-2.295500	1
48.365000	134.050000	4.846700	-2.295300	1
48.330000	134.090000	8.593500	-2.295600	1
48.295000	134.130000	5.833100	-2.295500	1
48.260000	134.170000	7.212900	-2.295500	1
48.225000	134.210000	3.772700	-2.295600	1
48.190000	134.250000	5.495500	-2.295500	1
48.155000	134.290000	3.775300	-2.295700	1
48.120000	134.330000	3.775100	-2.295800	1
48.085000	134.370000	3.084700	-2.295600	1
48.050000	134.410000	3.774600	-2.295800	1
48.015000	134.450000	1.714300	-2.295700	1
47.980000	134.490000	4.130800	-2.295500	1
47.945000	134.530000	4.820600	-2.295600	1
47.909000	134.570000	8.260500	-2.295600	1
47.874000	134.610000	5.510200	-2.295600	1
47.839000	134.650000	6.890000	-2.295600	1
47.804000	134.690000	9.299700	-2.295500	1
47.769000	134.730000	8.612700	-2.295600	1
47.734000	134.770000	7.912400	-2.295500	1
47.698000	134.810000	-0.688020	-2.295400	1
47.663000	134.850000	0.358650	-2.295400	1
47.628000	134.890000	2.061500	-2.295300	1
47.593000	134.930000	-1.021800	-2.295400	1
48.882000	133.540000	1.885100	-1.540900	1
48.847000	133.580000	6.011900	-1.540800	1
48.812000	133.620000	7.051800	-1.541000	1
48.777000	133.660000	4.981500	-1.540900	1
48.743000	133.700000	4.641200	-1.540800	1
48.708000	133.740000	2.920900	-1.540800	1
48.673000	133.780000	5.320600	-1.540800	1
48.638000	133.820000	7.053600	-1.541000	1
48.603000	133.860000	8.423300	-1.541000	1
48.568000	133.900000	6.013000	-1.540900	1
48.534000	133.940000	2.922900	-1.541000	1
48.499000	133.990000	4.292600	-1.540900	1
48.464000	134.030000	2.922300	-1.540900	1
48.429000	134.070000	4.982100	-1.540800	1
48.394000	134.110000	4.291700	-1.540700	1
48.359000	134.150000	9.818700	-1.540900	1
48.324000	134.190000	8.421300	-1.540800	1
48.289000	134.230000	9.468100	-1.540800	1
48.254000	134.270000	14.978000	-1.540900	1
48.219000	134.310000	10.508000	-1.540800	1
48.184000	134.350000	5.687500	-1.541000	1
48.149000	134.390000	4.310300	-1.541100	1
48.114000	134.430000	4.309900	-1.540900	1
48.079000	134.470000	4.309900	-1.541100	1
48.043000	134.510000	4.999600	-1.541100	1
48.008000	134.550000	9.819200	-1.540800	1
47.973000	134.590000	9.129000	-1.540900	1
47.938000	134.630000	6.378800	-1.540900	1
47.903000	134.670000	7.068600	-1.540900	1
47.868000	134.710000	3.278300	-1.540900	1
47.832000	134.740000	4.665100	-1.540800	1
47.797000	134.780000	1.905000	-1.540900	1
47.762000	134.820000	5.394700	-1.540800	1
47.727000	134.860000	2.307500	-1.540700	1
47.691000	134.900000	1.957300	-1.540700	1
48.876000	133.630000	3.598100	-0.792480	1
48.841000	133.670000	8.068000	-0.792650	1
48.806000	133.710000	8.417700	-0.792540	1
48.771000	133.750000	7.334600	-0.792480	1
48.737000	133.800000	10.094000	-0.792520	1
48.702000	133.840000	6.006800	-0.792440	1
48.667000	133.880000	9.404000	-0.792690	1
48.632000	133.920000	10.434000	-0.792650	1
48.597000	133.960000	5.963400	-0.792530	1
48.562000	134.000000	5.273200	-0.792660	1
48.527000	134.040000	2.526000	-0.792580	1
48.492000	134.080000	3.895800	-0.792550	1
48.457000	134.120000	6.305500	-0.792490	1
48.422000	134.160000	8.375200	-0.792340	1
48.387000	134.200000	12.505000	-0.792540	1
48.352000	134.240000	11.125000	-0.792450	1
48.317000	134.280000	10.435000	-0.792490	1
48.282000	134.320000	6.654300	-0.792580	1
48.247000	134.360000	5.291300	-0.792520	1
48.212000	134.400000	7.011100	-0.792670	1
48.177000	134.440000	6.670900	-0.792730	1
48.142000	134.480000	7.700500	-0.792540	1
48.107000	134.520000	7.010400	-0.792760	1
48.072000	134.560000	11.833000	-0.792740	1
48.037000	134.600000	10.453000	-0.792520	1
48.001000	134.640000	5.982700	-0.792520	1
47.966000	134.680000	3.912500	-0.792600	1
47.931000	134.720000	1.502200	-0.792530	1
47.896000	134.760000	1.499300	-0.792520	1
47.861000	134.800000	5.981800	-0.792450	1
47.825000	134.840000	7.348900	-0.792580	1
47.790000	134.880000	7.028600	-0.792500	1
47.755000	134.920000	6.688300	-0.792350	1
47.720000	134.960000	5.308100	-0.792380	1
47.684000	134.990000	2.557800	-0.792240	1
47.649000	135.030000	1.870800	-0.792420	1
