La	Lo	Sig	Theta	Ice
60.401000	154.490000	-7.058400	-18.182000	1
60.380000	154.570000	-6.725900	-18.182000	1
60.359000	154.650000	-7.051600	-18.182000	1
60.338000	154.730000	-7.405800	-18.182000	1
60.317000	154.810000	-7.051900	-18.182000	1
60.296000	154.880000	-7.406600	-18.182000	1
60.275000	154.960000	-7.728700	-18.182000	1
60.254000	155.040000	-7.393500	-18.182000	1
60.232000	155.120000	-8.080600	-18.182000	1
60.211000	155.190000	-7.740800	-18.182000	1
60.190000	155.270000	-8.771900	-18.182000	1
60.168000	155.350000	-8.783100	-18.182000	1
60.147000	155.420000	-7.391000	-18.182000	1
60.126000	155.500000	-7.404900	-18.182000	1
60.104000	155.580000	-7.065000	-18.182000	1
60.083000	155.650000	-7.391400	-18.182000	1
60.061000	155.730000	-7.054200	-18.182000	1
60.039000	155.810000	-7.749900	-18.182000	1
60.018000	155.880000	-7.738900	-18.182000	1
59.996000	155.960000	-9.110300	-18.182000	1
59.974000	156.040000	-9.114600	-18.182000	1
59.952000	156.110000	-8.776600	-18.182000	1
59.930000	156.190000	-9.125300	-18.182000	1
59.908000	156.260000	-7.049000	-18.182000	1
59.886000	156.340000	-8.079800	-18.182000	1
59.864000	156.410000	-7.393100	-18.182000	1
59.842000	156.490000	-6.702400	-18.182000	1
59.820000	156.560000	-6.702600	-18.182000	1
59.798000	156.640000	-5.679700	-18.182000	1
59.776000	156.720000	-7.060500	-18.182000	1
59.753000	156.790000	-4.642000	-18.182000	1
59.731000	156.870000	-6.023000	-18.182000	1
59.709000	156.940000	-6.710800	-18.182000	1
59.686000	157.010000	-7.050200	-18.182000	1
60.404000	154.700000	-7.931900	-17.424000	1
60.383000	154.780000	-6.213400	-17.424000	1
60.362000	154.850000	-7.934800	-17.424000	1
60.341000	154.930000	-8.261900	-17.424000	1
60.320000	155.010000	-7.571800	-17.424000	1
60.298000	155.090000	-7.231900	-17.424000	1
60.277000	155.160000	-5.868300	-17.424000	1
60.256000	155.240000	-8.271800	-17.424000	1
60.235000	155.320000	-7.929400	-17.424000	1
60.213000	155.390000	-7.579100	-17.424000	1
60.192000	155.470000	-7.923200	-17.424000	1
60.170000	155.550000	-6.202200	-17.424000	1
60.149000	155.630000	-6.885600	-17.424000	1
60.127000	155.700000	-7.239700	-17.424000	1
60.105000	155.780000	-6.549600	-17.424000	1
60.084000	155.860000	-5.859400	-17.424000	1
60.062000	155.930000	-7.234100	-17.424000	1
60.040000	156.010000	-8.261300	-17.424000	1
60.018000	156.080000	-8.275500	-17.424000	1
59.997000	156.160000	-7.927900	-17.424000	1
59.975000	156.240000	-7.571500	-17.424000	1
59.953000	156.310000	-6.546800	-17.424000	1
59.931000	156.390000	-6.206700	-17.424000	1
59.909000	156.460000	-6.558200	-17.424000	1
59.887000	156.540000	-6.540900	-17.424000	1
59.864000	156.610000	-4.136200	-17.424000	1
59.842000	156.690000	-7.242900	-17.424000	1
59.820000	156.760000	-7.231900	-17.424000	1
59.798000	156.840000	-5.160700	-17.424000	1
59.775000	156.910000	-5.510900	-17.424000	1
59.753000	156.990000	-5.851400	-17.424000	1
59.730000	157.060000	-6.548300	-17.424000	1
59.311000	158.790000	-0.184270	-15.903000	1
59.288000	158.860000	-3.965300	-15.903000	1
59.264000	158.930000	-2.276300	-15.903000	1
59.240000	159.000000	-3.300400	-15.903000	1
59.217000	159.070000	-3.633200	-15.903000	1
59.193000	159.150000	-4.663700	-15.903000	1
59.169000	159.220000	0.490830	-15.903000	1
59.145000	159.290000	1.525800	-15.903000	1
59.121000	159.360000	-1.938500	-15.903000	1
59.098000	159.430000	-2.940400	-15.903000	1
59.074000	159.510000	-0.190040	-15.903000	1
59.050000	159.580000	-0.904040	-15.903000	1
59.026000	159.650000	0.135940	-15.903000	1
59.002000	159.720000	1.172100	-15.903000	1
60.324000	155.620000	-5.327800	-15.148000	1
60.302000	155.690000	-6.698600	-15.148000	1
60.281000	155.770000	-5.682100	-15.148000	1
60.259000	155.850000	-7.396700	-15.148000	1
60.237000	155.920000	-6.699300	-15.147000	1
60.216000	156.000000	-6.690900	-15.148000	1
60.194000	156.080000	-6.699600	-15.147000	1
60.172000	156.150000	-5.320400	-15.147000	1
60.150000	156.230000	-5.320700	-15.147000	1
60.128000	156.310000	-7.381800	-15.147000	1
60.106000	156.380000	-5.321000	-15.147000	1
60.084000	156.460000	-4.971000	-15.147000	1
60.062000	156.530000	-3.599700	-15.147000	1
60.040000	156.610000	-4.281300	-15.147000	1
60.017000	156.690000	-6.018600	-15.147000	1
59.995000	156.760000	-4.968200	-15.147000	1
59.973000	156.840000	-0.497380	-15.147000	1
59.951000	156.910000	-5.318700	-15.147000	1
59.928000	156.990000	-5.318600	-15.147000	1
59.906000	157.060000	-6.376800	-15.147000	1
59.883000	157.140000	-4.645000	-15.147000	1
59.861000	157.210000	-4.969100	-15.147000	1
59.838000	157.290000	-3.248900	-15.147000	1
59.815000	157.360000	-2.218700	-15.147000	1
60.300000	156.300000	-4.836900	-12.876000	1
60.278000	156.370000	-5.175600	-12.876000	1
60.256000	156.450000	-3.469200	-12.876000	1
60.234000	156.530000	-3.116900	-12.876000	1
60.212000	156.600000	-5.541500	-12.876000	1
60.190000	156.680000	-4.837700	-12.876000	1
60.167000	156.760000	-3.117600	-12.876000	1
60.145000	156.830000	-1.046200	-12.876000	1
60.123000	156.910000	-2.435500	-12.876000	1
60.100000	156.980000	-0.357940	-12.876000	1
60.078000	157.060000	-1.397000	-12.876000	1
60.055000	157.130000	-5.179300	-12.876000	1
60.033000	157.210000	-4.839500	-12.876000	1
60.010000	157.280000	-5.176000	-12.876000	1
59.988000	157.360000	-4.836200	-12.876000	1
59.965000	157.440000	-5.176400	-12.876000	1
59.942000	157.510000	-4.836400	-12.876000	1
59.920000	157.590000	-4.852900	-12.876000	1
59.897000	157.660000	-5.530900	-12.876000	1
59.874000	157.730000	-3.115300	-12.876000	1
59.851000	157.810000	-2.461700	-12.876000	1
59.828000	157.880000	-0.356600	-12.876000	1
59.805000	157.960000	-1.050500	-12.876000	1
59.782000	158.030000	-2.103500	-12.876000	1
59.759000	158.110000	-2.426000	-12.876000	1
60.752000	155.280000	-0.229170	-10.603000	1
60.730000	155.350000	-1.253300	-10.602000	1
60.709000	155.430000	-6.770700	-10.602000	1
60.688000	155.510000	-3.330100	-10.602000	1
60.666000	155.590000	-4.360400	-10.602000	1
60.645000	155.670000	5.645400	-10.602000	1
60.623000	155.750000	-3.305500	-10.602000	1
60.601000	155.820000	-0.899130	-10.602000	1
60.580000	155.900000	-1.929200	-10.603000	1
60.558000	155.980000	-2.264400	-10.602000	1
60.536000	156.060000	-1.592000	-10.602000	1
60.514000	156.130000	-3.310100	-10.602000	1
60.492000	156.210000	-2.966400	-10.602000	1
60.470000	156.290000	-3.646800	-10.602000	1
60.448000	156.360000	-4.687200	-10.602000	1
60.426000	156.440000	-4.003500	-10.602000	1
60.404000	156.520000	-3.997500	-10.602000	1
60.382000	156.590000	-3.997700	-10.602000	1
60.360000	156.670000	-3.997700	-10.602000	1
60.338000	156.750000	-2.964000	-10.602000	1
60.315000	156.820000	-3.310500	-10.602000	1
59.736000	158.900000	1.515000	-9.845900	1
59.713000	158.970000	8.057500	-9.846000	1
59.689000	159.040000	6.337300	-9.845900	1
59.666000	159.110000	4.270800	-9.845900	1
59.642000	159.190000	7.360700	-9.845900	1
59.618000	159.260000	5.300400	-9.845700	1
59.594000	159.330000	4.602700	-9.846000	1
59.570000	159.410000	3.912400	-9.845700	1
59.546000	159.480000	5.982300	-9.845800	1
59.522000	159.550000	3.222000	-9.845800	1
59.498000	159.620000	6.321800	-9.845700	1
59.474000	159.700000	5.995400	-9.845700	1
59.450000	159.770000	5.637800	-9.845800	1
59.426000	159.840000	7.707700	-9.845800	1
59.402000	159.910000	5.637500	-9.845800	1
59.378000	159.980000	5.981100	-9.845800	1
59.353000	160.060000	6.671000	-9.845700	1
59.329000	160.130000	6.688300	-9.845800	1
59.305000	160.200000	1.177900	-9.845700	1
60.553000	156.380000	-2.335300	-9.091800	1
60.531000	156.460000	-3.709500	-9.091700	1
60.509000	156.540000	-3.043300	-9.091700	1
60.487000	156.610000	1.454300	-9.091700	1
60.464000	156.690000	6.620500	-9.091600	1
60.442000	156.770000	5.906500	-9.091700	1
60.420000	156.840000	1.086100	-9.091600	1
60.398000	156.920000	0.769640	-9.091700	1
60.375000	157.000000	2.805700	-9.091800	1
60.353000	157.070000	0.419050	-9.091600	1
60.330000	157.150000	0.061258	-9.091700	1
60.308000	157.230000	-2.695500	-9.091700	1
60.285000	157.300000	-3.022100	-9.091500	1
59.793000	159.070000	3.161700	-8.335400	1
59.769000	159.140000	6.580300	-8.335300	1
59.746000	159.210000	7.977600	-8.335300	1
59.722000	159.290000	6.929900	-8.335300	1
59.698000	159.360000	7.273500	-8.335200	1
59.674000	159.430000	6.239600	-8.335400	1
59.650000	159.510000	5.549300	-8.335100	1
59.626000	159.580000	6.600400	-8.335200	1
59.602000	159.650000	4.880100	-8.335200	1
59.578000	159.720000	5.919900	-8.335100	1
59.554000	159.800000	6.246000	-8.335100	1
59.530000	159.870000	7.628300	-8.335200	1
59.506000	159.940000	8.308100	-8.335200	1
59.481000	160.010000	6.581700	-8.335300	1
59.457000	160.090000	7.271500	-8.335200	1
59.433000	160.160000	6.585100	-8.335200	1
59.408000	160.230000	6.247500	-8.335200	1
59.384000	160.300000	5.214700	-8.335100	1
59.360000	160.370000	2.807100	-8.335200	1
60.591000	156.630000	-2.672300	-7.578800	1
60.569000	156.710000	-0.272320	-7.578800	1
60.546000	156.790000	4.207600	-7.578700	1
60.524000	156.860000	3.843700	-7.578800	1
60.502000	156.940000	6.943500	-7.578700	1
60.479000	157.020000	6.617100	-7.578900	1
60.457000	157.090000	5.236800	-7.578900	1
60.434000	157.170000	3.856400	-7.578800	1
60.412000	157.250000	1.449900	-7.578900	1
60.389000	157.320000	-1.644300	-7.578900	1
60.367000	157.400000	-1.304700	-7.578700	1
60.344000	157.470000	3.175400	-7.578800	1
60.321000	157.550000	3.519100	-7.578700	1
60.298000	157.630000	1.458900	-7.578800	1
60.275000	157.700000	1.094900	-7.578900	1
60.253000	157.780000	-0.951800	-7.578700	1
60.230000	157.850000	-0.285740	-7.578800	1
60.207000	157.930000	-0.612240	-7.578800	1
60.184000	158.000000	1.443800	-7.578600	1
59.762000	159.340000	5.584600	-7.578700	1
59.738000	159.410000	4.190700	-7.578600	1
59.714000	159.480000	7.310600	-7.578800	1
59.690000	159.560000	5.916500	-7.578500	1
59.666000	159.630000	7.310100	-7.578600	1
59.642000	159.700000	5.929900	-7.578600	1
59.618000	159.780000	9.369700	-7.578500	1
59.594000	159.850000	7.649500	-7.578500	1
59.569000	159.920000	9.709400	-7.578600	1
59.545000	159.990000	9.352900	-7.578600	1
59.521000	160.060000	7.649000	-7.578700	1
59.497000	160.140000	7.988700	-7.578600	1
59.472000	160.210000	10.059000	-7.578600	1
59.448000	160.280000	7.294700	-7.578700	1
59.423000	160.350000	9.354500	-7.578500	1
59.399000	160.420000	6.268100	-7.578600	1
59.777000	159.460000	4.130800	-6.824300	1
59.753000	159.530000	7.907000	-6.824500	1
59.729000	159.610000	8.936700	-6.824300	1
59.705000	159.680000	7.556500	-6.824300	1
59.681000	159.750000	5.156300	-6.824300	1
59.657000	159.830000	5.852300	-6.824200	1
59.633000	159.900000	6.202200	-6.824300	1
59.609000	159.970000	8.262000	-6.824300	1
59.585000	160.040000	7.569200	-6.824300	1
59.560000	160.110000	10.332000	-6.824400	1
59.536000	160.190000	11.685000	-6.824300	1
59.511000	160.260000	11.021000	-6.824300	1
59.487000	160.330000	9.980900	-6.824400	1
59.463000	160.400000	11.327000	-6.824300	1
59.438000	160.470000	3.440500	-6.824400	1
59.414000	160.550000	-0.373540	-6.824200	1
59.389000	160.620000	3.763000	-6.824400	1
59.793000	159.580000	4.183400	-6.069800	1
59.769000	159.660000	5.885800	-6.069600	1
59.745000	159.730000	6.915700	-6.069600	1
59.721000	159.800000	6.599100	-6.069600	1
59.696000	159.880000	9.008900	-6.069600	1
59.672000	159.950000	8.658800	-6.069600	1
59.648000	160.020000	7.628600	-6.069700	1
59.624000	160.090000	7.954700	-6.069700	1
59.599000	160.170000	8.634600	-6.069700	1
59.575000	160.240000	10.014000	-6.069700	1
59.551000	160.310000	12.424000	-6.069700	1
59.526000	160.380000	11.394000	-6.069700	1
59.502000	160.450000	10.363000	-6.069600	1
59.477000	160.530000	1.753200	-6.069700	1
59.452000	160.600000	4.163000	-6.069500	1
59.428000	160.670000	2.789400	-6.069800	1
60.954000	155.920000	0.704350	-5.315000	1
60.933000	156.000000	-2.032300	-5.315000	1
60.911000	156.080000	1.394000	-5.314900	1
60.889000	156.150000	-0.319870	-5.314800	1
60.867000	156.230000	0.377400	-5.315000	1
60.845000	156.310000	2.437300	-5.315000	1
60.823000	156.390000	0.363470	-5.315000	1
60.801000	156.470000	-1.003200	-5.314900	1
60.779000	156.540000	-2.047000	-5.315000	1
60.757000	156.620000	-3.767400	-5.314900	1
60.734000	156.700000	-3.767600	-5.314800	1
60.712000	156.780000	-3.077800	-5.314800	1
60.690000	156.850000	-1.694300	-5.314700	1
60.668000	156.930000	2.082000	-5.314700	1
60.645000	157.010000	0.361830	-5.314800	1
60.623000	157.080000	0.361520	-5.314600	1
60.600000	157.160000	-1.702300	-5.314800	1
60.578000	157.240000	-2.732600	-5.314900	1
60.555000	157.310000	-1.019200	-5.314800	1
60.532000	157.390000	3.460700	-5.314900	1
60.510000	157.470000	4.156800	-5.314900	1
60.973000	156.040000	-2.532900	-4.560100	1
60.951000	156.120000	1.940600	-4.560000	1
60.929000	156.200000	4.346900	-4.559900	1
60.907000	156.280000	4.350500	-4.560100	1
60.885000	156.360000	5.036800	-4.560100	1
60.863000	156.440000	3.316600	-4.560100	1
60.841000	156.510000	-0.447280	-4.560000	1
60.819000	156.590000	-1.827500	-4.560100	1
60.797000	156.670000	-1.154100	-4.560000	1
60.775000	156.750000	-1.138000	-4.559900	1
60.752000	156.820000	0.215450	-4.559900	1
60.730000	156.900000	2.641700	-4.559800	1
60.708000	156.980000	1.935000	-4.559800	1
60.685000	157.060000	2.301400	-4.559900	1
60.663000	157.130000	0.564540	-4.559700	1
60.640000	157.210000	-2.519200	-4.559900	1
60.618000	157.290000	-1.155800	-4.560000	1
60.595000	157.360000	-0.126100	-4.559900	1
60.572000	157.440000	1.253700	-4.560000	1
60.550000	157.520000	4.693500	-4.560000	1
60.527000	157.590000	2.643600	-4.559800	1
59.895000	159.610000	5.742400	-4.559800	1
59.871000	159.680000	5.742300	-4.559900	1
59.847000	159.760000	6.068400	-4.559700	1
59.823000	159.830000	6.758300	-4.559700	1
59.799000	159.900000	7.801700	-4.559700	1
59.775000	159.980000	5.051400	-4.559700	1
59.750000	160.050000	6.757700	-4.559700	1
59.726000	160.120000	6.081100	-4.559800	1
59.702000	160.190000	7.787400	-4.559800	1
59.677000	160.270000	7.787300	-4.559800	1
59.653000	160.340000	9.517000	-4.559800	1
59.628000	160.410000	6.770300	-4.559800	1
59.604000	160.480000	9.516500	-4.559800	1
59.579000	160.550000	6.752500	-4.559700	1
59.555000	160.630000	2.972300	-4.559900	1
59.530000	160.700000	0.561780	-4.559600	1
59.505000	160.770000	-1.504800	-4.559900	1
60.970000	156.250000	5.442600	-3.804200	1
60.948000	156.330000	4.416100	-3.804300	1
60.926000	156.410000	3.042500	-3.804300	1
60.904000	156.480000	2.352300	-3.804300	1
60.882000	156.560000	0.285460	-3.804200	1
60.859000	156.640000	1.661900	-3.804300	1
60.837000	156.720000	2.008200	-3.804200	1
60.815000	156.790000	0.971420	-3.804100	1
60.793000	156.870000	5.101300	-3.804100	1
60.770000	156.950000	5.101000	-3.804000	1
60.748000	157.030000	0.630700	-3.804000	1
60.725000	157.100000	5.100700	-3.804200	1
60.703000	157.180000	2.000300	-3.804000	1
60.680000	157.260000	0.286720	-3.804200	1
60.658000	157.330000	0.286500	-3.804200	1
60.635000	157.410000	0.636200	-3.804100	1
60.612000	157.490000	0.629460	-3.804200	1
60.590000	157.560000	3.039200	-3.804200	1
60.567000	157.640000	3.045400	-3.804000	1
60.544000	157.720000	3.042800	-3.804200	1
59.958000	159.590000	7.164600	-3.804000	1
59.934000	159.660000	5.094800	-3.804000	1
59.910000	159.740000	6.124700	-3.804100	1
59.886000	159.810000	8.194400	-3.804000	1
59.862000	159.880000	7.857700	-3.804000	1
59.838000	159.950000	7.154100	-3.804000	1
59.813000	160.030000	10.944000	-3.803900	1
59.789000	160.100000	10.944000	-3.804000	1
59.765000	160.170000	10.267000	-3.804000	1
59.740000	160.250000	8.546900	-3.804000	1
59.716000	160.320000	9.563300	-3.804100	1
59.692000	160.390000	7.166400	-3.804000	1
59.667000	160.460000	5.432800	-3.804100	1
59.643000	160.530000	4.402500	-3.804100	1
59.618000	160.610000	6.122100	-3.804000	1
59.593000	160.680000	5.105400	-3.804100	1
61.010000	156.300000	3.111000	-3.048100	1
60.988000	156.370000	4.827600	-3.048200	1
60.966000	156.450000	3.107500	-3.048300	1
60.944000	156.530000	3.107400	-3.048200	1
60.922000	156.610000	4.827100	-3.048100	1
60.900000	156.690000	3.457000	-3.048200	1
60.877000	156.760000	2.076700	-3.048200	1
60.855000	156.840000	3.106500	-3.048000	1
60.833000	156.920000	4.486300	-3.048000	1
60.810000	157.000000	4.826000	-3.047900	1
60.788000	157.080000	3.455800	-3.047900	1
60.765000	157.150000	0.695670	-3.048100	1
60.743000	157.230000	0.695310	-3.047900	1
60.720000	157.310000	1.735200	-3.048100	1
60.698000	157.380000	3.105100	-3.048100	1
60.675000	157.460000	3.454800	-3.048000	1
60.652000	157.540000	5.514600	-3.048100	1
61.072000	156.270000	2.547500	-2.296700	1
61.050000	156.340000	5.307400	-2.296600	1
61.028000	156.420000	6.677400	-2.296700	1
61.006000	156.500000	6.677400	-2.296700	1
60.984000	156.580000	5.647200	-2.296700	1
60.962000	156.660000	6.676900	-2.296600	1
60.939000	156.730000	5.646800	-2.296700	1
60.917000	156.810000	5.306600	-2.296700	1
60.895000	156.890000	3.586300	-2.296500	1
60.872000	156.970000	5.986100	-2.296500	1
60.850000	157.050000	7.025900	-2.296400	1
60.828000	157.120000	4.265700	-2.296400	1
60.805000	157.200000	2.545600	-2.296600	1
60.782000	157.280000	2.895200	-2.296400	1
60.760000	157.350000	4.265100	-2.296600	1
60.737000	157.430000	3.924900	-2.296600	1
60.715000	157.510000	4.614600	-2.296500	1
61.134000	156.230000	-1.767300	-1.541700	1
61.112000	156.310000	1.672600	-1.541700	1
61.090000	156.390000	8.902500	-1.541500	1
61.068000	156.470000	6.146300	-1.541600	1
61.046000	156.550000	5.109200	-1.541700	1
61.024000	156.630000	10.619000	-1.541700	1
61.002000	156.710000	9.586000	-1.541600	1
60.979000	156.780000	8.905900	-1.541700	1
60.957000	156.860000	8.215700	-1.541600	1
60.935000	156.940000	9.245500	-1.541500	1
60.912000	157.020000	8.555200	-1.541500	1
60.890000	157.090000	6.835000	-1.541400	1
60.867000	157.170000	6.494800	-1.541400	1
60.845000	157.250000	6.834700	-1.541500	1
60.822000	157.330000	6.494400	-1.541400	1
60.800000	157.400000	5.804200	-1.541500	1
60.777000	157.480000	7.184000	-1.541600	1
60.754000	157.560000	8.213800	-1.541500	1
60.731000	157.630000	9.243600	-1.541600	1
60.709000	157.710000	12.343000	-1.541600	1
60.686000	157.790000	12.343000	-1.541500	1
60.663000	157.860000	10.963000	-1.541600	1
60.640000	157.940000	10.622000	-1.541400	1
60.617000	158.020000	8.902200	-1.541500	1
60.594000	158.090000	11.652000	-1.541700	1
60.571000	158.170000	8.551700	-1.541500	1
60.548000	158.250000	7.861400	-1.541500	1
60.524000	158.320000	7.181200	-1.541500	1
60.501000	158.400000	7.520900	-1.541500	1
60.478000	158.470000	6.830600	-1.541400	1
60.454000	158.550000	9.231400	-1.541300	1
60.431000	158.620000	7.851200	-1.541300	1
60.408000	158.700000	7.170900	-1.541300	1
60.384000	158.770000	8.540700	-1.541300	1
60.361000	158.850000	10.260000	-1.541300	1
60.337000	158.920000	12.330000	-1.541400	1
60.313000	159.000000	10.260000	-1.541400	1
61.130000	156.440000	12.933000	-0.792880	1
61.108000	156.520000	11.213000	-0.792950	1
61.086000	156.600000	8.802900	-0.793060	1
61.064000	156.680000	7.422700	-0.792990	1
61.041000	156.750000	9.492600	-0.792910	1
61.019000	156.830000	11.213000	-0.793010	1
60.997000	156.910000	11.210000	-0.792960	1
60.974000	156.990000	13.959000	-0.792850	1
60.952000	157.070000	11.553000	-0.792810	1
60.930000	157.140000	11.903000	-0.792730	1
60.907000	157.220000	10.523000	-0.792730	1
60.884000	157.300000	12.243000	-0.792860	1
60.862000	157.380000	13.272000	-0.792710	1
60.839000	157.450000	11.902000	-0.792860	1
60.816000	157.530000	12.932000	-0.792900	1
60.794000	157.610000	14.312000	-0.792880	1
60.771000	157.680000	16.442000	-0.792980	1
60.748000	157.760000	16.441000	-0.792970	1
60.725000	157.840000	15.341000	-0.792860	1
60.702000	157.910000	18.641000	-0.792970	1
60.679000	157.990000	16.440000	-0.792730	1
60.656000	158.070000	14.310000	-0.792850	1
60.633000	158.140000	15.000000	-0.793000	1
60.610000	158.220000	12.930000	-0.792870	1
60.587000	158.290000	12.929000	-0.792850	1
60.563000	158.370000	12.239000	-0.792900	1
60.540000	158.450000	12.239000	-0.792840	1
60.517000	158.520000	12.929000	-0.792780	1
60.494000	158.600000	11.898000	-0.792680	1
60.470000	158.670000	11.898000	-0.792700	1
60.447000	158.750000	10.178000	-0.792600	1
