La	Lo	Sig	Theta	Ice
47.609000	143.400000	-6.724700	-18.175000	1
47.574000	143.440000	-6.402200	-18.175000	1
47.540000	143.480000	-5.697200	-18.175000	1
47.505000	143.520000	-7.437300	-18.175000	1
47.470000	143.560000	-6.742900	-18.175000	1
47.436000	143.600000	-8.109700	-18.175000	1
47.401000	143.640000	-7.420400	-18.175000	1
47.366000	143.680000	-6.385600	-18.175000	1
47.332000	143.720000	-7.077400	-18.175000	1
47.297000	143.760000	-8.107200	-18.175000	1
47.262000	143.800000	-8.104400	-18.175000	1
47.228000	143.840000	-7.417100	-18.175000	1
47.193000	143.880000	-7.434600	-18.175000	1
47.158000	143.920000	-6.726900	-18.175000	1
47.123000	143.960000	-5.370000	-18.175000	1
47.089000	144.000000	-6.060600	-18.175000	1
47.054000	144.040000	-7.435600	-18.175000	1
47.019000	144.080000	-6.745300	-18.175000	1
46.984000	144.120000	-5.707300	-18.175000	1
46.949000	144.160000	-6.724400	-18.174000	1
46.915000	144.200000	-6.398100	-18.175000	1
46.880000	144.240000	-6.726200	-18.174000	1
46.845000	144.280000	-6.046300	-18.174000	1
46.810000	144.320000	-6.403200	-18.175000	1
46.775000	144.360000	-6.047200	-18.174000	1
46.740000	144.400000	-5.713300	-18.174000	1
46.705000	144.430000	-6.395500	-18.174000	1
46.670000	144.470000	-6.071900	-18.174000	1
46.635000	144.510000	-5.705500	-18.175000	1
46.600000	144.550000	-6.044200	-18.174000	1
46.565000	144.590000	-6.384700	-18.174000	1
46.530000	144.630000	-5.370600	-18.174000	1
46.495000	144.670000	-4.348000	-18.174000	1
46.460000	144.710000	-4.340700	-18.174000	1
46.425000	144.740000	-5.694100	-18.174000	1
46.390000	144.780000	-4.665400	-18.174000	1
46.354000	144.820000	-6.053800	-18.174000	1
47.607000	143.500000	-4.825600	-17.418000	1
47.572000	143.540000	-5.134800	-17.418000	1
47.538000	143.580000	-6.553200	-17.418000	1
47.503000	143.620000	-5.520100	-17.418000	1
47.468000	143.660000	-6.535000	-17.418000	1
47.434000	143.700000	-5.857300	-17.418000	1
47.399000	143.740000	-6.551600	-17.418000	1
47.364000	143.780000	-7.566800	-17.418000	1
47.330000	143.820000	-8.257000	-17.418000	1
47.295000	143.860000	-7.566700	-17.418000	1
47.260000	143.900000	-6.191700	-17.417000	1
47.225000	143.940000	-6.544500	-17.418000	1
47.191000	143.980000	-5.854200	-17.417000	1
47.156000	144.020000	-5.520700	-17.417000	1
47.121000	144.060000	-6.549100	-17.417000	1
47.086000	144.100000	-6.550700	-17.417000	1
47.051000	144.140000	-5.515300	-17.417000	1
47.017000	144.180000	-5.859600	-17.417000	1
46.982000	144.220000	-6.210000	-17.417000	1
46.947000	144.260000	-6.194200	-17.417000	1
46.912000	144.300000	-6.892600	-17.417000	1
46.877000	144.330000	-6.547300	-17.417000	1
46.842000	144.370000	-6.208500	-17.417000	1
46.807000	144.410000	-6.531400	-17.417000	1
46.772000	144.450000	-6.544300	-17.417000	1
46.737000	144.490000	-5.169000	-17.417000	1
46.702000	144.530000	-5.520500	-17.417000	1
46.667000	144.570000	-5.175900	-17.417000	1
46.632000	144.610000	-5.176200	-17.417000	1
46.597000	144.650000	-3.133100	-17.417000	1
46.562000	144.680000	-3.798700	-17.417000	1
46.527000	144.720000	-3.432500	-17.417000	1
46.492000	144.760000	-3.794800	-17.417000	1
46.457000	144.800000	-6.530200	-17.417000	1
46.422000	144.840000	-4.493300	-17.417000	1
46.386000	144.880000	-5.840400	-17.417000	1
46.351000	144.920000	-5.864500	-17.417000	1
46.316000	144.950000	-4.487900	-17.417000	1
46.281000	144.990000	-4.483200	-17.417000	1
46.246000	145.030000	-3.472000	-17.417000	1
46.210000	145.070000	-2.424500	-17.417000	1
46.175000	145.110000	-2.765000	-17.417000	1
46.140000	145.150000	-2.782800	-17.417000	1
46.105000	145.180000	-2.754800	-17.417000	1
46.069000	145.220000	-1.062500	-17.417000	1
46.034000	145.260000	-2.415500	-17.417000	1
45.999000	145.300000	-1.725700	-17.417000	1
45.963000	145.330000	-1.057100	-17.417000	1
45.928000	145.370000	-2.416400	-17.417000	1
45.893000	145.410000	-5.195100	-17.417000	1
45.857000	145.450000	-5.858500	-17.416000	1
45.822000	145.490000	-5.542400	-17.417000	1
47.570000	143.640000	-5.884200	-16.655000	1
47.535000	143.680000	-5.510300	-16.656000	1
47.501000	143.720000	-6.224900	-16.655000	1
47.466000	143.760000	-6.201200	-16.655000	1
47.431000	143.800000	-6.201500	-16.655000	1
47.397000	143.840000	-6.558200	-16.655000	1
47.362000	143.880000	-7.582700	-16.655000	1
47.327000	143.920000	-6.898800	-16.655000	1
47.293000	143.960000	-6.916700	-16.655000	1
47.258000	144.000000	-5.868500	-16.655000	1
47.223000	144.040000	-5.196100	-16.655000	1
47.188000	144.080000	-4.834200	-16.655000	1
47.153000	144.120000	-6.205200	-16.655000	1
47.118000	144.160000	-5.876500	-16.655000	1
47.084000	144.190000	-5.509200	-16.655000	1
47.049000	144.230000	-6.217200	-16.655000	1
47.014000	144.270000	-6.206400	-16.655000	1
46.979000	144.310000	-4.521100	-16.655000	1
46.944000	144.350000	-5.878400	-16.655000	1
46.909000	144.390000	-5.534900	-16.655000	1
46.874000	144.430000	-6.219200	-16.655000	1
46.839000	144.470000	-5.862100	-16.655000	1
46.804000	144.510000	-5.512000	-16.655000	1
46.769000	144.550000	-5.903100	-16.655000	1
46.734000	144.590000	-3.488900	-16.655000	1
46.699000	144.630000	-4.523200	-16.655000	1
46.664000	144.660000	-2.775400	-16.655000	1
46.629000	144.700000	-3.472200	-16.655000	1
46.594000	144.740000	-2.068300	-16.655000	1
46.559000	144.780000	-3.449000	-16.655000	1
46.524000	144.820000	-4.180900	-16.655000	1
46.489000	144.860000	-6.218200	-16.655000	1
46.453000	144.900000	-5.534500	-16.654000	1
46.418000	144.930000	-5.216000	-16.655000	1
46.383000	144.970000	-4.867900	-16.655000	1
46.348000	145.010000	-4.844300	-16.654000	1
46.313000	145.050000	-4.154500	-16.655000	1
46.277000	145.090000	-3.114500	-16.654000	1
46.242000	145.130000	-2.434700	-16.654000	1
46.207000	145.160000	-4.179100	-16.655000	1
46.172000	145.200000	-0.742600	-16.654000	1
46.136000	145.240000	-1.766700	-16.655000	1
46.101000	145.280000	-1.423400	-16.654000	1
46.066000	145.320000	-1.761200	-16.654000	1
46.030000	145.350000	-1.071400	-16.654000	1
45.995000	145.390000	-2.106100	-16.654000	1
45.960000	145.430000	-2.104000	-16.654000	1
45.924000	145.470000	-4.521300	-16.654000	1
45.889000	145.500000	-5.896100	-16.654000	1
47.775000	143.490000	-6.801100	-15.898000	1
47.741000	143.530000	-1.979500	-15.898000	1
47.706000	143.570000	-2.662400	-15.898000	1
47.672000	143.610000	-6.127700	-15.898000	1
47.637000	143.650000	-5.753900	-15.898000	1
47.602000	143.690000	-4.735000	-15.898000	1
47.568000	143.730000	-5.081400	-15.898000	1
47.533000	143.770000	-6.451000	-15.898000	1
47.498000	143.810000	-6.806400	-15.898000	1
47.463000	143.850000	-5.422300	-15.898000	1
47.429000	143.890000	-5.795900	-15.898000	1
47.394000	143.930000	-7.139300	-15.898000	1
47.359000	143.970000	-5.758700	-15.898000	1
47.324000	144.010000	-6.453200	-15.897000	1
47.290000	144.050000	-5.095100	-15.898000	1
47.255000	144.090000	-3.723900	-15.897000	1
47.220000	144.130000	-4.381700	-15.897000	1
47.185000	144.170000	-5.083600	-15.897000	1
47.150000	144.210000	-4.032300	-15.897000	1
47.115000	144.250000	-5.420400	-15.897000	1
47.081000	144.290000	-4.768100	-15.897000	1
47.046000	144.330000	-5.782900	-15.897000	1
47.011000	144.370000	-5.778700	-15.897000	1
46.976000	144.410000	-5.417700	-15.897000	1
46.941000	144.450000	-5.077800	-15.897000	1
46.906000	144.490000	-5.762300	-15.897000	1
46.871000	144.530000	-6.799500	-15.897000	1
46.836000	144.560000	-4.732500	-15.897000	1
46.801000	144.600000	-4.392600	-15.897000	1
46.766000	144.640000	-4.733100	-15.897000	1
46.731000	144.680000	-3.349100	-15.897000	1
46.695000	144.720000	0.069804	-15.897000	1
46.660000	144.760000	-3.371000	-15.897000	1
46.625000	144.800000	-3.370700	-15.897000	1
46.590000	144.840000	-1.323000	-15.897000	1
46.555000	144.870000	-2.703600	-15.897000	1
46.520000	144.910000	-4.040400	-15.897000	1
46.485000	144.950000	-4.424800	-15.897000	1
46.450000	144.990000	-3.718500	-15.897000	1
46.414000	145.030000	-3.718800	-15.897000	1
46.379000	145.070000	-1.676300	-15.897000	1
46.344000	145.100000	-1.665200	-15.897000	1
46.309000	145.140000	-1.665600	-15.897000	1
46.273000	145.180000	-2.027300	-15.897000	1
46.238000	145.220000	-2.702000	-15.897000	1
46.203000	145.260000	-0.632070	-15.897000	1
46.168000	145.300000	-2.336300	-15.897000	1
46.132000	145.330000	0.763660	-15.897000	1
46.097000	145.370000	-0.620510	-15.897000	1
46.062000	145.410000	-0.259480	-15.897000	1
46.026000	145.450000	-0.599870	-15.897000	1
45.991000	145.480000	-1.311600	-15.897000	1
45.955000	145.520000	-5.099200	-15.897000	1
47.945000	143.390000	-4.728900	-15.142000	1
47.911000	143.430000	-6.058400	-15.142000	1
47.876000	143.470000	-3.654000	-15.142000	1
47.842000	143.510000	-4.700700	-15.142000	1
47.807000	143.550000	-5.731400	-15.142000	1
47.773000	143.590000	-2.980800	-15.142000	1
47.738000	143.630000	-2.622200	-15.142000	1
47.703000	143.670000	-1.969900	-15.142000	1
47.669000	143.710000	-5.754400	-15.142000	1
47.634000	143.750000	-5.025500	-15.142000	1
47.599000	143.790000	-5.757400	-15.142000	1
47.564000	143.830000	-5.376200	-15.142000	1
47.530000	143.870000	-5.376300	-15.142000	1
47.495000	143.910000	-5.026300	-15.142000	1
47.460000	143.950000	-5.380500	-15.142000	1
47.426000	143.990000	-5.068300	-15.142000	1
47.391000	144.030000	-6.061400	-15.142000	1
47.356000	144.070000	-5.385000	-15.142000	1
47.321000	144.110000	-4.341100	-15.142000	1
47.286000	144.150000	-3.311200	-15.142000	1
47.251000	144.190000	-4.691400	-15.142000	1
47.217000	144.230000	-4.379000	-15.142000	1
47.182000	144.270000	-4.035500	-15.141000	1
47.147000	144.310000	-4.692200	-15.141000	1
47.112000	144.350000	-4.342400	-15.141000	1
47.077000	144.390000	-4.376600	-15.141000	1
47.042000	144.420000	-3.686600	-15.142000	1
47.007000	144.460000	-4.693600	-15.141000	1
46.972000	144.500000	-4.343800	-15.141000	1
46.937000	144.540000	-4.344100	-15.141000	1
46.902000	144.580000	-3.005500	-15.141000	1
46.867000	144.620000	-5.061900	-15.141000	1
46.832000	144.660000	-3.347900	-15.141000	1
46.797000	144.700000	-1.627900	-15.141000	1
46.762000	144.740000	-1.281900	-15.141000	1
46.727000	144.780000	-1.606100	-15.141000	1
46.692000	144.810000	-4.001800	-15.141000	1
46.656000	144.850000	-4.379800	-15.141000	1
46.621000	144.890000	-1.244300	-15.141000	1
46.586000	144.930000	-2.313600	-15.141000	1
46.551000	144.970000	-3.312700	-15.141000	1
46.516000	145.010000	-3.328300	-15.141000	1
46.481000	145.050000	-2.660800	-15.141000	1
46.445000	145.080000	-1.960300	-15.141000	1
46.410000	145.120000	-0.930460	-15.141000	1
46.375000	145.160000	-3.687600	-15.141000	1
46.340000	145.200000	-1.627400	-15.141000	1
46.304000	145.240000	-0.933900	-15.141000	1
46.269000	145.270000	-0.244110	-15.141000	1
46.234000	145.310000	0.129240	-15.141000	1
46.198000	145.350000	1.471600	-15.141000	1
46.163000	145.390000	1.124900	-15.141000	1
46.128000	145.430000	1.127100	-15.141000	1
46.092000	145.460000	-0.566450	-15.141000	1
46.057000	145.500000	-0.595470	-15.141000	1
46.021000	145.540000	-0.567180	-15.141000	1
45.986000	145.580000	-3.680500	-15.141000	1
48.046000	143.360000	-0.798100	-14.388000	1
48.011000	143.400000	-3.208700	-14.388000	1
47.977000	143.440000	-3.532800	-14.389000	1
47.942000	143.480000	-4.895900	-14.388000	1
47.908000	143.520000	-4.947400	-14.389000	1
47.873000	143.560000	-4.914000	-14.388000	1
47.839000	143.600000	-4.576000	-14.388000	1
47.804000	143.640000	-5.250300	-14.388000	1
47.769000	143.680000	-3.870000	-14.388000	1
47.735000	143.720000	-3.877900	-14.388000	1
47.700000	143.760000	-4.220600	-14.388000	1
47.665000	143.800000	-4.237200	-14.388000	1
47.631000	143.850000	-4.561100	-14.388000	1
47.596000	143.890000	-3.904900	-14.388000	1
47.561000	143.930000	-5.618100	-14.388000	1
47.526000	143.970000	-4.544200	-14.388000	1
47.492000	144.010000	-3.871900	-14.388000	1
47.457000	144.040000	-3.170000	-14.388000	1
47.422000	144.080000	-4.574500	-14.388000	1
47.387000	144.120000	-4.908800	-14.388000	1
47.352000	144.160000	-3.544600	-14.388000	1
47.317000	144.200000	-3.196400	-14.388000	1
47.283000	144.240000	-2.872800	-14.388000	1
47.248000	144.280000	-1.809100	-14.388000	1
47.213000	144.320000	-3.197300	-14.388000	1
47.178000	144.360000	-3.904000	-14.388000	1
47.143000	144.400000	-4.568200	-14.388000	1
47.108000	144.440000	-4.911100	-14.387000	1
47.073000	144.480000	-5.635500	-14.388000	1
47.038000	144.520000	-3.867200	-14.387000	1
47.003000	144.560000	-4.251300	-14.388000	1
46.968000	144.600000	-3.875300	-14.388000	1
46.933000	144.640000	-4.252000	-14.387000	1
46.898000	144.680000	0.581000	-14.387000	1
46.863000	144.710000	-0.095493	-14.388000	1
46.828000	144.750000	0.934170	-14.387000	1
46.793000	144.790000	0.580140	-14.388000	1
46.757000	144.830000	-1.119100	-14.387000	1
46.722000	144.870000	-1.477000	-14.387000	1
46.687000	144.910000	-3.870200	-14.388000	1
46.652000	144.950000	-3.887400	-14.387000	1
46.617000	144.990000	-3.533900	-14.387000	1
46.582000	145.020000	0.570360	-14.388000	1
46.546000	145.060000	0.228540	-14.387000	1
46.511000	145.100000	-3.534600	-14.388000	1
46.476000	145.140000	-4.929300	-14.387000	1
46.441000	145.180000	-3.535300	-14.387000	1
46.405000	145.220000	-4.239600	-14.388000	1
46.370000	145.250000	-2.859600	-14.387000	1
46.335000	145.290000	-0.778280	-14.387000	1
46.299000	145.330000	0.907830	-14.387000	1
46.264000	145.370000	2.630600	-14.387000	1
46.229000	145.410000	1.287900	-14.387000	1
46.193000	145.440000	0.583620	-14.387000	1
46.158000	145.480000	2.289700	-14.387000	1
46.123000	145.520000	0.583010	-14.387000	1
46.087000	145.560000	0.596430	-14.387000	1
46.052000	145.590000	1.258600	-14.387000	1
46.016000	145.630000	-3.208500	-14.387000	1
45.981000	145.670000	-3.889200	-14.387000	1
48.112000	143.370000	-0.414370	-13.631000	1
48.077000	143.410000	-1.124400	-13.631000	1
48.043000	143.460000	-2.821100	-13.631000	1
48.008000	143.500000	-1.814900	-13.631000	1
47.974000	143.540000	-3.161700	-13.631000	1
47.939000	143.580000	-4.218300	-13.631000	1
47.905000	143.620000	-5.250100	-13.631000	1
47.870000	143.660000	-5.256800	-13.631000	1
47.835000	143.700000	-4.216500	-13.631000	1
47.801000	143.740000	-3.186600	-13.631000	1
47.766000	143.780000	-3.186600	-13.631000	1
47.731000	143.820000	-2.823000	-13.631000	1
47.697000	143.860000	-3.513400	-13.631000	1
47.662000	143.900000	-3.159200	-13.631000	1
47.627000	143.940000	-1.813100	-13.631000	1
47.592000	143.980000	-2.837200	-13.631000	1
47.557000	144.020000	-4.540300	-13.631000	1
47.523000	144.060000	-5.254700	-13.631000	1
47.488000	144.100000	-2.844300	-13.631000	1
47.453000	144.140000	-5.231500	-13.631000	1
47.418000	144.180000	-3.535100	-13.631000	1
47.383000	144.220000	-4.897100	-13.631000	1
47.348000	144.260000	-3.173200	-13.630000	1
47.314000	144.300000	-3.869800	-13.631000	1
47.279000	144.340000	-3.870100	-13.631000	1
47.244000	144.380000	-3.526000	-13.630000	1
47.209000	144.420000	-3.866300	-13.630000	1
47.174000	144.460000	-2.143800	-13.630000	1
47.139000	144.500000	-4.207100	-13.630000	1
47.104000	144.540000	-3.861100	-13.631000	1
47.069000	144.570000	-4.555500	-13.630000	1
47.034000	144.610000	-4.201800	-13.630000	1
46.999000	144.650000	-3.522000	-13.630000	1
46.964000	144.690000	0.608260	-13.630000	1
46.929000	144.730000	-0.075861	-13.630000	1
46.893000	144.770000	2.671600	-13.630000	1
46.858000	144.810000	0.949390	-13.630000	1
46.823000	144.850000	-0.424760	-13.630000	1
46.788000	144.890000	0.267330	-13.630000	1
46.753000	144.920000	-2.167000	-13.630000	1
46.718000	144.960000	-3.863800	-13.630000	1
46.683000	145.000000	-3.174000	-13.630000	1
46.647000	145.040000	-3.860700	-13.630000	1
46.612000	145.080000	-4.204800	-13.630000	1
46.577000	145.120000	-0.076919	-13.630000	1
46.542000	145.160000	-0.760920	-13.630000	1
46.506000	145.190000	-1.455200	-13.630000	1
46.471000	145.230000	-3.525900	-13.630000	1
46.436000	145.270000	-2.141400	-13.630000	1
46.401000	145.310000	3.685000	-13.630000	1
46.365000	145.350000	1.624500	-13.630000	1
46.330000	145.380000	0.949350	-13.630000	1
46.295000	145.420000	1.960000	-13.630000	1
46.259000	145.460000	1.297300	-13.630000	1
46.224000	145.500000	-0.447070	-13.630000	1
46.188000	145.540000	-0.763610	-13.630000	1
46.153000	145.570000	3.016300	-13.630000	1
46.118000	145.610000	2.302100	-13.630000	1
46.082000	145.650000	2.298000	-13.630000	1
46.047000	145.690000	0.609700	-13.630000	1
46.011000	145.720000	-1.110900	-13.630000	1
48.109000	143.470000	-1.106400	-12.872000	1
48.074000	143.510000	-1.130400	-12.872000	1
48.040000	143.550000	-2.164600	-12.872000	1
48.005000	143.590000	-4.203900	-12.872000	1
47.970000	143.630000	-3.177600	-12.872000	1
47.936000	143.670000	-2.851700	-12.872000	1
47.901000	143.710000	-2.511800	-12.872000	1
47.866000	143.750000	-2.841600	-12.872000	1
47.832000	143.790000	-3.538200	-12.872000	1
47.797000	143.840000	-3.536000	-12.872000	1
47.762000	143.880000	-3.192200	-12.872000	1
47.728000	143.920000	-3.192500	-12.872000	1
47.693000	143.960000	-4.205200	-12.872000	1
47.658000	144.000000	-2.509000	-12.872000	1
47.623000	144.040000	-3.515700	-12.872000	1
47.588000	144.080000	-3.533600	-12.872000	1
47.554000	144.120000	-3.193800	-12.872000	1
47.519000	144.160000	-1.813900	-12.872000	1
47.484000	144.200000	-4.228500	-12.872000	1
47.449000	144.240000	-4.220600	-12.872000	1
47.414000	144.270000	-4.220700	-12.872000	1
47.379000	144.310000	-4.548900	-12.871000	1
47.344000	144.350000	-4.561500	-12.872000	1
47.309000	144.390000	-3.519200	-12.871000	1
47.274000	144.430000	-2.841800	-12.871000	1
47.240000	144.470000	-2.505800	-12.871000	1
47.205000	144.510000	2.318200	-12.871000	1
47.170000	144.550000	-0.786280	-12.871000	1
47.135000	144.590000	-1.460300	-12.872000	1
47.100000	144.630000	-0.098277	-12.871000	1
47.064000	144.670000	-1.818700	-12.871000	1
47.029000	144.710000	-2.147000	-12.871000	1
46.994000	144.750000	-1.123400	-12.871000	1
46.959000	144.790000	0.238820	-12.871000	1
46.924000	144.820000	1.630000	-12.871000	1
46.889000	144.860000	1.302000	-12.871000	1
46.854000	144.900000	1.629400	-12.871000	1
46.819000	144.940000	1.301400	-12.871000	1
46.783000	144.980000	-1.815400	-12.871000	1
46.748000	145.020000	-3.179600	-12.871000	1
46.713000	145.060000	-2.846100	-12.871000	1
46.678000	145.100000	-3.196500	-12.871000	1
46.643000	145.130000	-3.516100	-12.871000	1
46.607000	145.170000	-3.176400	-12.871000	1
46.572000	145.210000	-2.826500	-12.871000	1
46.537000	145.250000	-1.820500	-12.871000	1
46.502000	145.290000	-1.797000	-12.871000	1
46.466000	145.330000	-3.201300	-12.871000	1
46.431000	145.360000	1.982700	-12.871000	1
46.395000	145.400000	2.308600	-12.871000	1
48.174000	143.490000	-1.335900	-12.112000	1
48.140000	143.530000	-1.380000	-12.112000	1
48.105000	143.570000	-1.730200	-12.112000	1
48.071000	143.610000	-0.662700	-12.112000	1
48.036000	143.650000	0.343730	-12.112000	1
48.001000	143.690000	-2.756800	-12.112000	1
47.967000	143.730000	-2.389500	-12.112000	1
47.932000	143.770000	-3.053500	-12.112000	1
47.897000	143.810000	-2.757500	-12.112000	1
47.863000	143.850000	-2.714000	-12.112000	1
47.828000	143.890000	-3.054200	-12.112000	1
47.793000	143.930000	-1.728000	-12.112000	1
47.758000	143.970000	-2.024500	-12.112000	1
47.724000	144.010000	-2.412400	-12.112000	1
47.689000	144.050000	-3.099000	-12.112000	1
47.654000	144.090000	-4.792000	-12.112000	1
47.619000	144.130000	-3.401400	-12.112000	1
47.584000	144.170000	-2.059100	-12.112000	1
47.550000	144.210000	-1.725600	-12.112000	1
47.515000	144.250000	-2.372200	-12.112000	1
47.480000	144.290000	-4.476800	-12.112000	1
47.445000	144.330000	-3.786800	-12.112000	1
47.410000	144.370000	-3.781000	-12.112000	1
47.375000	144.410000	-2.734800	-12.112000	1
47.340000	144.450000	-3.097700	-12.112000	1
47.305000	144.490000	-3.441800	-12.112000	1
47.270000	144.530000	-2.061800	-12.112000	1
47.235000	144.570000	1.760300	-12.112000	1
47.200000	144.610000	2.066100	-12.111000	1
47.165000	144.650000	-2.042100	-12.112000	1
47.130000	144.680000	0.389130	-12.111000	1
47.095000	144.720000	-1.681300	-12.112000	1
47.060000	144.760000	1.034800	-12.111000	1
47.025000	144.800000	3.100800	-12.111000	1
46.990000	144.840000	2.410500	-12.111000	1
46.954000	144.880000	-0.340030	-12.112000	1
