La	Lo	Sig	Theta	Ice
56.422000	137.900000	-3.965300	-18.181000	1
56.394000	137.960000	-6.376900	-18.181000	1
56.366000	138.030000	-9.457400	-18.181000	1
56.339000	138.090000	-9.125000	-18.181000	1
56.311000	138.150000	-9.458200	-18.181000	1
56.283000	138.210000	-9.123200	-18.181000	1
56.255000	138.270000	-8.088500	-18.181000	1
56.227000	138.330000	-7.057900	-18.181000	1
56.199000	138.390000	-7.745200	-18.180000	1
56.172000	138.450000	-7.055100	-18.180000	1
56.144000	138.520000	-6.711600	-18.180000	1
56.116000	138.580000	-6.705500	-18.180000	1
56.088000	138.640000	-5.681400	-18.180000	1
56.060000	138.700000	-7.059800	-18.180000	1
56.032000	138.760000	-7.739500	-18.180000	1
56.003000	138.820000	-7.750800	-18.180000	1
55.975000	138.880000	-7.063300	-18.180000	1
55.947000	138.940000	-8.784900	-18.180000	1
55.919000	139.000000	-7.397600	-18.180000	1
55.891000	139.060000	-7.063400	-18.180000	1
55.862000	139.120000	-7.057000	-18.180000	1
55.834000	139.180000	-8.088600	-18.180000	1
55.806000	139.240000	-8.442500	-18.180000	1
55.777000	139.300000	-7.387500	-18.180000	1
55.749000	139.360000	-8.085600	-18.180000	1
55.720000	139.420000	-8.442400	-18.181000	1
55.692000	139.470000	-7.055000	-18.180000	1
55.663000	139.530000	-7.047800	-18.181000	1
55.635000	139.590000	-7.746100	-18.180000	1
55.606000	139.650000	-8.442800	-18.181000	1
55.578000	139.710000	-8.090100	-18.180000	1
55.549000	139.770000	-9.819900	-18.181000	1
55.520000	139.830000	-9.117900	-18.181000	1
55.492000	139.890000	-8.781700	-18.181000	1
55.463000	139.950000	-8.778200	-18.181000	1
55.434000	140.000000	-8.778000	-18.181000	1
55.405000	140.060000	-8.087600	-18.181000	1
55.376000	140.120000	-7.747700	-18.181000	1
55.348000	140.180000	-9.067100	-18.181000	1
55.319000	140.240000	-9.430100	-18.181000	1
55.290000	140.290000	-9.093400	-18.181000	1
55.261000	140.350000	-8.746500	-18.181000	1
55.232000	140.410000	-9.080900	-18.181000	1
55.203000	140.470000	-9.065300	-18.181000	1
55.174000	140.530000	-9.421500	-18.181000	1
55.145000	140.580000	-10.120000	-18.181000	1
55.115000	140.640000	-9.416700	-18.181000	1
55.086000	140.700000	-9.416500	-18.181000	1
55.057000	140.760000	-9.416400	-18.181000	1
55.028000	140.810000	-8.752500	-18.181000	1
54.999000	140.870000	-8.398700	-18.181000	1
54.969000	140.930000	-9.757600	-18.181000	1
54.940000	140.980000	-9.757600	-18.181000	1
54.911000	141.040000	-10.462000	-18.181000	1
54.881000	141.100000	-10.824000	-18.181000	1
54.852000	141.150000	-9.067700	-18.181000	1
54.823000	141.210000	-9.080500	-18.181000	1
54.793000	141.270000	-8.746800	-18.181000	1
54.764000	141.320000	-8.725300	-18.181000	1
54.734000	141.380000	-8.751300	-18.181000	1
54.705000	141.440000	-8.047300	-18.181000	1
54.675000	141.490000	-8.385100	-18.181000	1
54.646000	141.550000	-9.065900	-18.181000	1
54.616000	141.600000	-8.398000	-18.181000	1
54.586000	141.660000	-8.398200	-18.181000	1
54.557000	141.720000	-8.738300	-18.181000	1
54.527000	141.770000	-8.398600	-18.181000	1
54.497000	141.830000	-7.695300	-18.181000	1
54.467000	141.880000	-8.420000	-18.181000	1
54.438000	141.940000	-8.032400	-18.181000	1
54.408000	141.990000	-8.069700	-18.181000	1
54.378000	142.050000	-7.729700	-18.181000	1
54.348000	142.110000	-6.652100	-18.180000	1
54.318000	142.160000	-7.002200	-18.181000	1
54.288000	142.220000	-8.033500	-18.180000	1
54.258000	142.270000	-7.039900	-18.180000	1
54.228000	142.330000	-6.652300	-18.180000	1
54.198000	142.380000	-6.349900	-18.181000	1
54.168000	142.430000	-7.034200	-18.180000	1
54.138000	142.490000	-6.378500	-18.180000	1
54.108000	142.540000	-8.415900	-18.180000	1
54.078000	142.600000	-7.724800	-18.180000	1
54.048000	142.650000	-7.030000	-18.180000	1
54.017000	142.710000	-7.034900	-18.180000	1
53.987000	142.760000	-7.041600	-18.180000	1
53.957000	142.820000	-7.721200	-18.180000	1
53.927000	142.870000	-8.069500	-18.180000	1
53.896000	142.920000	-7.375400	-18.180000	1
53.866000	142.980000	-7.368500	-18.180000	1
53.836000	143.030000	-7.727400	-18.180000	1
53.805000	143.080000	-7.033300	-18.180000	1
53.775000	143.140000	-6.689700	-18.180000	1
53.744000	143.190000	-6.312000	-18.180000	1
53.714000	143.250000	-7.380400	-18.180000	1
53.683000	143.300000	-8.033800	-18.180000	1
53.653000	143.350000	-8.755900	-18.180000	1
53.622000	143.410000	-8.756500	-18.180000	1
53.592000	143.460000	-9.790500	-18.180000	1
53.561000	143.510000	-9.114500	-18.180000	1
53.531000	143.560000	-8.756700	-18.180000	1
53.500000	143.620000	-8.757300	-18.180000	1
53.469000	143.670000	-8.413100	-18.180000	1
53.438000	143.720000	-7.725300	-18.180000	1
53.408000	143.780000	-7.375100	-18.180000	1
53.377000	143.830000	-7.740300	-18.180000	1
53.346000	143.880000	-6.682200	-18.180000	1
53.315000	143.930000	-6.682300	-18.180000	1
53.285000	143.990000	-5.655700	-18.180000	1
53.254000	144.040000	-5.669000	-18.180000	1
53.223000	144.090000	-4.282900	-18.180000	1
53.192000	144.140000	-5.653000	-18.180000	1
53.161000	144.190000	-5.650000	-18.180000	1
53.130000	144.250000	-3.607400	-18.179000	1
56.434000	138.020000	-3.449200	-17.424000	1
56.407000	138.080000	-4.482300	-17.423000	1
56.379000	138.140000	-6.886500	-17.423000	1
56.351000	138.210000	-11.370000	-17.423000	1
56.323000	138.270000	-11.370000	-17.423000	1
56.295000	138.330000	-10.338000	-17.423000	1
56.267000	138.390000	-9.984500	-17.423000	1
56.239000	138.450000	-7.576000	-17.423000	1
56.212000	138.510000	-6.893200	-17.423000	1
56.184000	138.570000	-6.879800	-17.423000	1
56.156000	138.630000	-7.929700	-17.422000	1
56.128000	138.690000	-7.920600	-17.423000	1
56.099000	138.750000	-6.883700	-17.422000	1
56.071000	138.810000	-6.210800	-17.422000	1
56.043000	138.870000	-6.891600	-17.423000	1
56.015000	138.930000	-6.537600	-17.422000	1
55.987000	138.990000	-7.585900	-17.423000	1
55.958000	139.050000	-8.259500	-17.422000	1
55.930000	139.110000	-6.197700	-17.422000	1
55.902000	139.170000	-7.933000	-17.423000	1
55.873000	139.230000	-7.937200	-17.423000	1
55.845000	139.290000	-7.919600	-17.422000	1
55.817000	139.350000	-7.242500	-17.423000	1
55.788000	139.410000	-6.552500	-17.422000	1
55.760000	139.470000	-7.229100	-17.423000	1
55.731000	139.530000	-7.920000	-17.423000	1
55.703000	139.590000	-7.229500	-17.423000	1
55.674000	139.650000	-7.595100	-17.423000	1
55.646000	139.710000	-7.928700	-17.423000	1
55.617000	139.770000	-7.931400	-17.423000	1
55.588000	139.830000	-8.959600	-17.423000	1
55.559000	139.890000	-9.289500	-17.423000	1
55.531000	139.940000	-8.966400	-17.423000	1
55.502000	140.000000	-8.275800	-17.423000	1
55.473000	140.060000	-8.620700	-17.423000	1
55.444000	140.120000	-8.609500	-17.423000	1
55.415000	140.180000	-7.930000	-17.423000	1
55.387000	140.240000	-8.249800	-17.423000	1
55.358000	140.290000	-9.631700	-17.423000	1
55.329000	140.350000	-8.940900	-17.423000	1
55.300000	140.410000	-9.639600	-17.423000	1
55.271000	140.470000	-8.949100	-17.423000	1
55.242000	140.530000	-9.637600	-17.423000	1
55.213000	140.580000	-8.946500	-17.423000	1
55.183000	140.640000	-8.606700	-17.423000	1
55.154000	140.700000	-9.640800	-17.423000	1
55.125000	140.760000	-9.662300	-17.423000	1
55.096000	140.810000	-8.956600	-17.423000	1
55.067000	140.870000	-9.301500	-17.423000	1
55.037000	140.930000	-8.953800	-17.423000	1
55.008000	140.980000	-9.639000	-17.423000	1
54.979000	141.040000	-9.286000	-17.423000	1
54.949000	141.100000	-9.976800	-17.423000	1
54.920000	141.150000	-8.629300	-17.423000	1
54.891000	141.210000	-9.303100	-17.423000	1
54.861000	141.270000	-9.289400	-17.423000	1
54.832000	141.320000	-10.002000	-17.423000	1
54.802000	141.380000	-9.653900	-17.423000	1
54.773000	141.440000	-8.942100	-17.423000	1
54.743000	141.490000	-10.331000	-17.423000	1
54.714000	141.550000	-10.338000	-17.423000	1
54.684000	141.610000	-10.670000	-17.423000	1
54.654000	141.660000	-8.968300	-17.423000	1
54.625000	141.720000	-7.563800	-17.423000	1
54.595000	141.770000	-8.604700	-17.423000	1
54.565000	141.830000	-8.270600	-17.423000	1
54.535000	141.890000	-7.587700	-17.423000	1
54.506000	141.940000	-8.278300	-17.423000	1
56.447000	138.140000	-8.213800	-16.661000	1
56.419000	138.200000	-7.142100	-16.660000	1
56.391000	138.260000	-7.170100	-16.660000	1
56.363000	138.320000	-9.582700	-16.660000	1
56.335000	138.380000	-6.826700	-16.660000	1
56.307000	138.450000	-6.479600	-16.660000	1
56.279000	138.510000	-6.456000	-16.660000	1
56.251000	138.570000	-6.796500	-16.660000	1
56.223000	138.630000	-8.541500	-16.660000	1
56.195000	138.690000	-7.851500	-16.660000	1
56.167000	138.750000	-7.859000	-16.660000	1
56.139000	138.810000	-7.168700	-16.660000	1
56.111000	138.870000	-6.138500	-16.660000	1
56.083000	138.930000	-7.161500	-16.660000	1
56.055000	138.990000	-7.495800	-16.660000	1
56.026000	139.050000	-8.543100	-16.660000	1
55.998000	139.110000	-7.519700	-16.660000	1
55.970000	139.170000	-6.486000	-16.660000	1
55.941000	139.230000	-7.516800	-16.660000	1
55.913000	139.290000	-6.826800	-16.660000	1
55.885000	139.350000	-8.207800	-16.660000	1
55.856000	139.410000	-6.803100	-16.660000	1
55.828000	139.470000	-6.818100	-16.660000	1
55.799000	139.530000	-6.830700	-16.660000	1
55.771000	139.590000	-7.494200	-16.660000	1
55.742000	139.650000	-6.463400	-16.660000	1
55.713000	139.710000	-7.160300	-16.660000	1
55.685000	139.770000	-8.525400	-16.660000	1
55.656000	139.820000	-7.858900	-16.660000	1
55.627000	139.880000	-9.244000	-16.660000	1
55.599000	139.940000	-9.935400	-16.660000	1
55.570000	140.000000	-8.876600	-16.660000	1
55.541000	140.060000	-9.555100	-16.661000	1
55.512000	140.120000	-8.183200	-16.660000	1
55.483000	140.180000	-8.551300	-16.661000	1
55.454000	140.230000	-8.524000	-16.660000	1
55.426000	140.290000	-8.908600	-16.661000	1
55.397000	140.350000	-8.217900	-16.661000	1
55.368000	140.410000	-7.864600	-16.660000	1
55.339000	140.470000	-8.909400	-16.661000	1
55.310000	140.520000	-8.236100	-16.661000	1
55.281000	140.580000	-8.927500	-16.661000	1
55.251000	140.640000	-8.577500	-16.661000	1
55.222000	140.700000	-8.233400	-16.660000	1
55.193000	140.760000	-9.251100	-16.661000	1
55.164000	140.810000	-8.233900	-16.661000	1
55.135000	140.870000	-9.251500	-16.661000	1
55.105000	140.930000	-8.560800	-16.661000	1
55.076000	140.980000	-9.269200	-16.661000	1
55.047000	141.040000	-8.911500	-16.661000	1
55.017000	141.100000	-9.266000	-16.661000	1
54.988000	141.160000	-9.602900	-16.661000	1
54.959000	141.210000	-9.606800	-16.661000	1
54.929000	141.270000	-9.940500	-16.661000	1
54.900000	141.330000	-9.607700	-16.661000	1
54.870000	141.380000	-9.267200	-16.661000	1
54.841000	141.440000	-9.263900	-16.661000	1
54.811000	141.500000	-9.587100	-16.660000	1
54.781000	141.550000	-9.604600	-16.661000	1
54.752000	141.610000	-9.591600	-16.660000	1
54.722000	141.660000	-9.272200	-16.660000	1
54.693000	141.720000	-9.609000	-16.661000	1
54.663000	141.780000	-9.269700	-16.660000	1
54.633000	141.830000	-8.234200	-16.660000	1
54.603000	141.890000	-8.225200	-16.660000	1
54.574000	141.940000	-9.266000	-16.660000	1
54.544000	142.000000	-7.540900	-16.660000	1
56.625000	137.890000	-6.060600	-15.903000	1
56.597000	137.950000	-3.294900	-15.903000	1
56.569000	138.010000	-8.116300	-15.903000	1
56.542000	138.070000	-6.401700	-15.903000	1
56.514000	138.130000	-6.038200	-15.903000	1
56.486000	138.190000	-7.415600	-15.903000	1
56.458000	138.260000	-2.621200	-15.902000	1
56.430000	138.320000	-3.628000	-15.902000	1
56.402000	138.380000	-7.433900	-15.902000	1
56.375000	138.440000	-8.468800	-15.902000	1
56.347000	138.500000	-7.412100	-15.902000	1
56.319000	138.560000	-6.748100	-15.902000	1
56.291000	138.620000	-8.098700	-15.902000	1
56.263000	138.680000	-8.098800	-15.902000	1
56.235000	138.740000	-6.378200	-15.902000	1
56.206000	138.800000	-7.760500	-15.902000	1
56.178000	138.870000	-7.075200	-15.902000	1
56.150000	138.930000	-7.433100	-15.902000	1
56.122000	138.990000	-7.409200	-15.902000	1
56.094000	139.050000	-7.409400	-15.902000	1
56.065000	139.110000	-7.409800	-15.902000	1
56.037000	139.170000	-7.410900	-15.902000	1
56.009000	139.230000	-6.396800	-15.902000	1
55.980000	139.290000	-7.409900	-15.902000	1
55.952000	139.350000	-7.760200	-15.902000	1
55.923000	139.410000	-6.730000	-15.902000	1
55.895000	139.470000	-6.747300	-15.902000	1
55.866000	139.530000	-6.381300	-15.902000	1
55.838000	139.580000	-6.036700	-15.902000	1
55.809000	139.640000	-5.024000	-15.902000	1
55.781000	139.700000	-6.038300	-15.902000	1
55.752000	139.760000	-7.414800	-15.902000	1
55.723000	139.820000	-7.782300	-15.902000	1
55.695000	139.880000	-6.745400	-15.902000	1
55.666000	139.940000	-8.116400	-15.902000	1
55.637000	140.000000	-8.100600	-15.902000	1
55.608000	140.060000	-8.473800	-15.902000	1
55.580000	140.120000	-9.164800	-15.903000	1
55.551000	140.170000	-9.482500	-15.902000	1
55.522000	140.230000	-8.808400	-15.903000	1
55.493000	140.290000	-9.482200	-15.902000	1
55.464000	140.350000	-9.145900	-15.903000	1
55.435000	140.410000	-8.796900	-15.903000	1
55.406000	140.470000	-7.442400	-15.902000	1
55.377000	140.520000	-8.133200	-15.903000	1
55.348000	140.580000	-7.765600	-15.903000	1
55.319000	140.640000	-7.793300	-15.903000	1
55.290000	140.700000	-7.780000	-15.903000	1
55.260000	140.750000	-8.794200	-15.903000	1
55.231000	140.810000	-8.807900	-15.903000	1
55.202000	140.870000	-9.145000	-15.903000	1
55.173000	140.930000	-8.455600	-15.903000	1
55.143000	140.980000	-8.794900	-15.903000	1
55.114000	141.040000	-8.106000	-15.903000	1
55.085000	141.100000	-7.791800	-15.903000	1
55.055000	141.160000	-8.468900	-15.903000	1
55.026000	141.210000	-9.487400	-15.903000	1
54.997000	141.270000	-9.147200	-15.903000	1
54.967000	141.330000	-8.797200	-15.903000	1
54.937000	141.380000	-9.141500	-15.903000	1
54.908000	141.440000	-8.100400	-15.903000	1
54.878000	141.500000	-9.496100	-15.903000	1
54.849000	141.550000	-9.479600	-15.903000	1
54.819000	141.610000	-7.758000	-15.903000	1
54.790000	141.660000	-8.795300	-15.902000	1
54.760000	141.720000	-9.820300	-15.903000	1
54.730000	141.780000	-8.789500	-15.903000	1
54.701000	141.830000	-8.803400	-15.902000	1
54.671000	141.890000	-9.140200	-15.903000	1
54.641000	141.940000	-8.455900	-15.902000	1
54.611000	142.000000	-7.791400	-15.902000	1
54.581000	142.060000	-7.409000	-15.902000	1
54.551000	142.110000	-6.728800	-15.902000	1
54.521000	142.170000	-6.735200	-15.902000	1
57.371000	136.290000	-4.965200	-15.149000	1
57.344000	136.360000	-6.022900	-15.150000	1
57.317000	136.420000	-5.342700	-15.150000	1
57.291000	136.490000	-0.171290	-15.150000	1
57.264000	136.550000	-3.959600	-15.150000	1
57.237000	136.620000	-5.673900	-15.150000	1
57.210000	136.680000	0.527640	-15.150000	1
57.183000	136.740000	-3.276900	-15.150000	1
57.156000	136.810000	-2.554000	-15.150000	1
57.129000	136.870000	-4.995900	-15.150000	1
57.102000	136.940000	-4.643400	-15.150000	1
57.075000	137.000000	-4.298200	-15.150000	1
57.047000	137.060000	-6.026600	-15.150000	1
57.020000	137.130000	-5.338800	-15.150000	1
56.993000	137.190000	-3.609800	-15.150000	1
56.966000	137.250000	-5.692600	-15.149000	1
56.939000	137.310000	-0.850530	-15.149000	1
56.911000	137.380000	-2.228600	-15.149000	1
56.884000	137.440000	-3.599300	-15.149000	1
56.857000	137.500000	-7.051100	-15.149000	1
56.829000	137.570000	-4.675300	-15.148000	1
56.802000	137.630000	-3.621500	-15.148000	1
56.774000	137.690000	-3.628000	-15.148000	1
56.747000	137.750000	-5.355200	-15.148000	1
56.719000	137.820000	-4.643900	-15.148000	1
56.691000	137.880000	-2.928600	-15.148000	1
56.664000	137.940000	-6.714200	-15.147000	1
56.636000	138.000000	-3.967100	-15.147000	1
56.608000	138.060000	-7.734300	-15.147000	1
56.581000	138.130000	-7.394400	-15.147000	1
56.553000	138.190000	-6.379000	-15.147000	1
56.525000	138.250000	-4.640400	-15.147000	1
56.497000	138.310000	-2.236400	-15.146000	1
56.469000	138.370000	-3.919600	-15.146000	1
56.441000	138.430000	-7.058800	-15.146000	1
56.414000	138.490000	-6.695100	-15.146000	1
56.386000	138.560000	-7.053100	-15.146000	1
56.358000	138.620000	-8.076400	-15.146000	1
56.329000	138.680000	-7.393800	-15.146000	1
56.301000	138.740000	-7.061300	-15.146000	1
56.273000	138.800000	-8.408900	-15.146000	1
56.245000	138.860000	-7.038000	-15.146000	1
56.217000	138.920000	-6.013900	-15.146000	1
56.189000	138.980000	-6.348000	-15.146000	1
56.161000	139.040000	-6.020500	-15.146000	1
56.132000	139.100000	-7.038800	-15.146000	1
56.104000	139.160000	-7.395200	-15.146000	1
56.076000	139.220000	-7.035800	-15.146000	1
56.047000	139.280000	-6.685700	-15.146000	1
56.019000	139.340000	-6.362100	-15.146000	1
55.990000	139.400000	-6.709700	-15.146000	1
55.962000	139.460000	-6.369900	-15.146000	1
55.933000	139.520000	-6.345800	-15.146000	1
55.905000	139.580000	-5.996000	-15.146000	1
55.876000	139.640000	-5.339600	-15.146000	1
55.848000	139.700000	-5.656200	-15.146000	1
55.819000	139.760000	-6.686800	-15.146000	1
55.790000	139.820000	-7.741500	-15.146000	1
55.762000	139.880000	-7.053600	-15.146000	1
55.733000	139.940000	-8.408500	-15.146000	1
55.704000	140.000000	-7.037600	-15.146000	1
55.675000	140.050000	-7.742100	-15.146000	1
55.647000	140.110000	-8.093300	-15.146000	1
55.618000	140.170000	-7.062900	-15.147000	1
55.589000	140.230000	-8.430500	-15.146000	1
55.560000	140.290000	-8.423000	-15.147000	1
55.531000	140.350000	-8.407200	-15.146000	1
55.502000	140.400000	-8.431500	-15.147000	1
55.473000	140.460000	-8.091400	-15.147000	1
55.444000	140.520000	-8.448200	-15.146000	1
55.415000	140.580000	-8.782600	-15.147000	1
55.386000	140.640000	-8.109600	-15.147000	1
55.357000	140.690000	-7.418400	-15.147000	1
55.327000	140.750000	-7.062000	-15.147000	1
55.298000	140.810000	-8.433100	-15.147000	1
55.269000	140.870000	-8.093200	-15.147000	1
55.240000	140.930000	-8.127100	-15.147000	1
55.210000	140.980000	-8.467600	-15.147000	1
55.181000	141.040000	-8.451500	-15.147000	1
55.152000	141.100000	-8.093900	-15.147000	1
55.122000	141.150000	-8.818400	-15.147000	1
55.093000	141.210000	-8.797800	-15.147000	1
55.063000	141.270000	-9.472100	-15.147000	1
55.034000	141.330000	-8.108600	-15.147000	1
55.005000	141.380000	-9.830300	-15.147000	1
54.975000	141.440000	-10.154000	-15.147000	1
54.945000	141.500000	-10.188000	-15.147000	1
54.916000	141.550000	-8.466300	-15.147000	1
54.886000	141.610000	-8.126200	-15.147000	1
54.857000	141.660000	-8.110100	-15.147000	1
54.827000	141.720000	-8.464500	-15.146000	1
54.797000	141.780000	-9.832100	-15.147000	1
54.768000	141.830000	-7.760400	-15.147000	1
54.738000	141.890000	-9.158300	-15.146000	1
54.708000	141.940000	-9.158000	-15.147000	1
54.678000	142.000000	-8.815700	-15.146000	1
54.648000	142.060000	-7.417700	-15.146000	1
54.618000	142.110000	-7.771500	-15.146000	1
54.588000	142.170000	-6.709900	-15.146000	1
56.536000	138.370000	-3.495800	-14.392000	1
56.508000	138.430000	-5.210300	-14.392000	1
56.480000	138.490000	-6.596400	-14.392000	1
56.452000	138.550000	-7.284600	-14.392000	1
56.424000	138.610000	-6.934700	-14.392000	1
56.396000	138.670000	-6.248300	-14.392000	1
56.368000	138.730000	-6.223400	-14.392000	1
56.340000	138.790000	-6.935400	-14.392000	1
56.312000	138.850000	-6.245800	-14.392000	1
56.284000	138.920000	-7.626800	-14.392000	1
56.255000	138.980000	-6.935200	-14.392000	1
56.227000	139.040000	-5.898700	-14.392000	1
56.199000	139.100000	-6.933000	-14.392000	1
56.171000	139.160000	-6.239100	-14.392000	1
56.142000	139.220000	-7.287200	-14.392000	1
56.114000	139.280000	-7.283500	-14.392000	1
56.085000	139.340000	-6.931200	-14.392000	1
56.057000	139.400000	-5.900600	-14.392000	1
56.028000	139.460000	-6.593700	-14.392000	1
56.000000	139.520000	-6.247400	-14.392000	1
55.971000	139.580000	-6.243700	-14.392000	1
55.943000	139.640000	-5.567400	-14.392000	1
55.914000	139.700000	-4.527200	-14.392000	1
55.886000	139.760000	-5.900400	-14.392000	1
55.857000	139.810000	-6.602700	-14.392000	1
55.828000	139.870000	-6.595400	-14.392000	1
55.800000	139.930000	-6.591900	-14.392000	1
55.771000	139.990000	-6.595700	-14.392000	1
55.742000	140.050000	-7.282600	-14.392000	1
55.713000	140.110000	-7.282900	-14.392000	1
55.684000	140.170000	-6.596600	-14.392000	1
55.655000	140.230000	-6.933000	-14.393000	1
