La	Lo	Sig	Theta	Ice
58.367000	141.620000	-8.748600	-18.183000	1
58.342000	141.690000	-7.044800	-18.183000	1
58.317000	141.760000	-9.118300	-18.183000	1
58.292000	141.830000	-9.454300	-18.183000	1
58.267000	141.900000	-10.486000	-18.183000	1
58.242000	141.960000	-8.076800	-18.183000	1
58.217000	142.030000	-7.386400	-18.183000	1
58.192000	142.100000	-8.076900	-18.183000	1
58.167000	142.170000	-9.807100	-18.183000	1
58.142000	142.240000	-9.807100	-18.183000	1
58.116000	142.300000	-7.736600	-18.183000	1
58.091000	142.370000	-7.734200	-18.183000	1
58.066000	142.440000	-8.411400	-18.183000	1
58.041000	142.510000	-8.429200	-18.183000	1
58.015000	142.580000	-8.752600	-18.183000	1
57.990000	142.640000	-8.770400	-18.183000	1
57.964000	142.710000	-6.341300	-18.183000	1
57.939000	142.780000	-6.012400	-18.183000	1
57.913000	142.840000	-7.043400	-18.183000	1
57.888000	142.910000	-6.356900	-18.183000	1
57.862000	142.980000	-6.016900	-18.183000	1
57.836000	143.050000	-6.030900	-18.183000	1
57.810000	143.110000	-5.667600	-18.183000	1
57.785000	143.180000	-6.000300	-18.183000	1
57.759000	143.250000	-7.045200	-18.183000	1
57.733000	143.310000	-6.358700	-18.183000	1
57.707000	143.380000	-7.049300	-18.183000	1
57.681000	143.440000	-6.699200	-18.183000	1
57.655000	143.510000	-7.747900	-18.183000	1
57.629000	143.580000	-8.445100	-18.183000	1
57.603000	143.640000	-6.342500	-18.183000	1
57.577000	143.710000	-7.387000	-18.183000	1
57.551000	143.770000	-10.818000	-18.183000	1
57.525000	143.840000	-9.124400	-18.183000	1
57.499000	143.910000	-8.079200	-18.183000	1
57.473000	143.970000	-7.746600	-18.183000	1
57.446000	144.040000	-7.753400	-18.183000	1
57.420000	144.100000	-8.441900	-18.183000	1
57.394000	144.170000	-7.403700	-18.182000	1
57.367000	144.230000	-8.088500	-18.183000	1
57.341000	144.300000	-8.444800	-18.183000	1
57.315000	144.360000	-8.088700	-18.183000	1
57.288000	144.430000	-9.477100	-18.183000	1
57.262000	144.490000	-8.432400	-18.183000	1
57.235000	144.560000	-8.784100	-18.183000	1
57.208000	144.620000	-8.082800	-18.183000	1
57.182000	144.680000	-6.712800	-18.183000	1
57.155000	144.750000	-8.090500	-18.183000	1
57.128000	144.810000	-9.471800	-18.183000	1
57.102000	144.880000	-8.774200	-18.182000	1
57.075000	144.940000	-8.091200	-18.183000	1
57.048000	145.000000	-6.376500	-18.182000	1
57.021000	145.070000	-4.997900	-18.182000	1
56.994000	145.130000	-4.306600	-18.183000	1
56.967000	145.200000	-3.616700	-18.182000	1
56.940000	145.260000	-3.277800	-18.182000	1
58.459000	141.540000	-5.126000	-17.425000	1
58.434000	141.600000	-13.397000	-17.426000	1
58.410000	141.670000	-11.003000	-17.426000	1
58.385000	141.740000	-7.902500	-17.425000	1
58.360000	141.810000	-9.975700	-17.426000	1
58.335000	141.880000	-7.913600	-17.425000	1
58.310000	141.950000	-6.532900	-17.425000	1
58.285000	142.020000	-10.660000	-17.426000	1
58.260000	142.090000	-7.217400	-17.425000	1
58.234000	142.150000	-7.213700	-17.425000	1
58.209000	142.220000	-9.291100	-17.425000	1
58.184000	142.290000	-8.936200	-17.425000	1
58.159000	142.360000	-7.218400	-17.425000	1
58.133000	142.430000	-7.222500	-17.425000	1
58.108000	142.490000	-6.868800	-17.425000	1
58.083000	142.560000	-7.570900	-17.425000	1
58.057000	142.630000	-8.246800	-17.425000	1
58.032000	142.700000	-7.223900	-17.425000	1
58.006000	142.760000	-7.216700	-17.425000	1
57.981000	142.830000	-7.564800	-17.425000	1
57.955000	142.900000	-6.186800	-17.425000	1
57.929000	142.970000	-4.473700	-17.425000	1
57.904000	143.030000	-5.504500	-17.425000	1
57.878000	143.100000	-5.154700	-17.425000	1
57.852000	143.170000	-5.845500	-17.425000	1
57.826000	143.230000	-6.880600	-17.425000	1
57.801000	143.300000	-7.220100	-17.425000	1
57.775000	143.370000	-7.231600	-17.425000	1
57.749000	143.430000	-6.201100	-17.425000	1
57.723000	143.500000	-6.534300	-17.425000	1
57.697000	143.560000	-7.232300	-17.425000	1
57.671000	143.630000	-6.888500	-17.425000	1
57.645000	143.700000	-7.565700	-17.425000	1
57.619000	143.760000	-8.606800	-17.425000	1
57.593000	143.830000	-7.924000	-17.425000	1
57.567000	143.890000	-6.875900	-17.425000	1
57.540000	143.960000	-6.543300	-17.425000	1
57.514000	144.030000	-7.922100	-17.425000	1
57.488000	144.090000	-7.234300	-17.425000	1
57.461000	144.160000	-7.931600	-17.425000	1
57.435000	144.220000	-7.582000	-17.425000	1
57.409000	144.290000	-7.228000	-17.425000	1
57.382000	144.350000	-6.882400	-17.425000	1
57.356000	144.420000	-7.927400	-17.425000	1
57.329000	144.480000	-7.916300	-17.425000	1
57.303000	144.550000	-9.293300	-17.425000	1
57.276000	144.610000	-10.678000	-17.425000	1
57.249000	144.670000	-6.887600	-17.425000	1
57.223000	144.740000	-7.232000	-17.425000	1
57.196000	144.800000	-6.550600	-17.425000	1
57.169000	144.870000	-7.238600	-17.425000	1
57.143000	144.930000	-6.882400	-17.425000	1
57.116000	145.000000	-7.929900	-17.425000	1
57.089000	145.060000	-6.197800	-17.425000	1
57.062000	145.120000	-5.521200	-17.425000	1
57.035000	145.190000	-5.526200	-17.425000	1
57.008000	145.250000	-3.444700	-17.424000	1
56.981000	145.310000	-0.694240	-17.425000	1
58.576000	141.380000	-4.725000	-16.663000	1
58.551000	141.450000	-1.624200	-16.663000	1
58.527000	141.520000	-7.823300	-16.663000	1
58.502000	141.590000	-10.589000	-16.663000	1
58.477000	141.660000	-8.507900	-16.663000	1
58.452000	141.730000	-7.481200	-16.663000	1
58.427000	141.800000	-7.135800	-16.663000	1
58.402000	141.860000	-6.787000	-16.663000	1
58.377000	141.930000	-7.127600	-16.663000	1
58.352000	142.000000	-6.439700	-16.663000	1
58.327000	142.070000	-8.859200	-16.663000	1
58.302000	142.140000	-8.172600	-16.663000	1
58.277000	142.210000	-6.788200	-16.663000	1
58.251000	142.280000	-7.134900	-16.663000	1
58.226000	142.340000	-8.510200	-16.662000	1
58.201000	142.410000	-7.118900	-16.663000	1
58.175000	142.480000	-7.119300	-16.662000	1
58.150000	142.550000	-7.483400	-16.662000	1
58.125000	142.620000	-7.133800	-16.663000	1
58.099000	142.680000	-7.484400	-16.662000	1
58.074000	142.750000	-8.867500	-16.662000	1
58.048000	142.820000	-7.819100	-16.662000	1
58.023000	142.890000	-7.136200	-16.662000	1
57.997000	142.950000	-5.408300	-16.662000	1
57.971000	143.020000	-4.728400	-16.662000	1
57.946000	143.090000	-6.455800	-16.662000	1
57.920000	143.150000	-6.103500	-16.662000	1
57.894000	143.220000	-5.759900	-16.662000	1
57.868000	143.290000	-6.450400	-16.662000	1
57.842000	143.350000	-6.100400	-16.662000	1
57.816000	143.420000	-6.798800	-16.662000	1
57.790000	143.490000	-5.414600	-16.662000	1
57.764000	143.550000	-6.455000	-16.662000	1
57.738000	143.620000	-6.789100	-16.662000	1
57.712000	143.690000	-6.789400	-16.662000	1
57.686000	143.750000	-6.795900	-16.662000	1
57.660000	143.820000	-6.793300	-16.662000	1
57.634000	143.880000	-8.178800	-16.662000	1
57.608000	143.950000	-8.175200	-16.662000	1
57.582000	144.010000	-6.794400	-16.662000	1
57.555000	144.080000	-6.108000	-16.662000	1
57.529000	144.150000	-6.458400	-16.662000	1
57.503000	144.210000	-7.485700	-16.662000	1
57.476000	144.280000	-7.486300	-16.662000	1
57.450000	144.340000	-7.136100	-16.662000	1
57.423000	144.410000	-7.140100	-16.662000	1
57.397000	144.470000	-6.793000	-16.662000	1
57.370000	144.540000	-6.793000	-16.662000	1
57.344000	144.600000	-6.106800	-16.662000	1
57.317000	144.670000	-6.107000	-16.662000	1
57.291000	144.730000	-7.828300	-16.662000	1
57.264000	144.790000	-6.822600	-16.662000	1
57.237000	144.860000	-6.105000	-16.662000	1
57.210000	144.920000	-6.459400	-16.662000	1
57.184000	144.990000	-5.074900	-16.662000	1
57.157000	145.050000	-5.792900	-16.662000	1
57.130000	145.120000	-6.483400	-16.662000	1
57.103000	145.180000	-6.796500	-16.662000	1
57.076000	145.240000	-6.117600	-16.662000	1
57.049000	145.310000	-3.009100	-16.662000	1
57.022000	145.370000	-3.033100	-16.662000	1
56.995000	145.430000	-1.975500	-16.662000	1
58.166000	142.670000	-6.353800	-15.904000	1
58.140000	142.740000	-5.354900	-15.904000	1
58.115000	142.800000	-7.062600	-15.904000	1
58.089000	142.870000	-6.038300	-15.904000	1
58.064000	142.940000	-6.038800	-15.904000	1
58.038000	143.010000	-7.751100	-15.904000	1
58.012000	143.070000	-5.668900	-15.904000	1
57.987000	143.140000	-7.408900	-15.904000	1
57.961000	143.210000	-5.663600	-15.904000	1
57.935000	143.270000	-6.013900	-15.904000	1
57.909000	143.340000	-6.710700	-15.904000	1
57.883000	143.410000	-5.324100	-15.904000	1
57.857000	143.470000	-6.705200	-15.904000	1
57.831000	143.540000	-7.403400	-15.904000	1
57.805000	143.610000	-5.688700	-15.904000	1
57.779000	143.670000	-5.348900	-15.904000	1
57.753000	143.740000	-6.729800	-15.904000	1
57.727000	143.810000	-6.033500	-15.904000	1
57.701000	143.870000	-6.387700	-15.904000	1
57.675000	143.940000	-7.070700	-15.904000	1
57.649000	144.000000	-6.730900	-15.904000	1
57.622000	144.070000	-6.040800	-15.904000	1
57.596000	144.130000	-5.344600	-15.904000	1
57.570000	144.200000	-6.014700	-15.904000	1
57.543000	144.270000	-5.348400	-15.904000	1
57.517000	144.330000	-6.705800	-15.904000	1
57.490000	144.400000	-6.033200	-15.904000	1
57.464000	144.460000	-6.373600	-15.904000	1
57.437000	144.530000	-6.724400	-15.904000	1
57.411000	144.590000	-7.737700	-15.904000	1
57.384000	144.660000	-5.010300	-15.904000	1
57.358000	144.720000	-6.374900	-15.904000	1
57.331000	144.780000	-7.079600	-15.904000	1
57.304000	144.850000	-6.708200	-15.904000	1
57.277000	144.910000	-6.049400	-15.904000	1
57.251000	144.980000	-7.066400	-15.904000	1
57.224000	145.040000	-4.329200	-15.904000	1
57.197000	145.110000	-4.655700	-15.904000	1
57.170000	145.170000	-5.006200	-15.904000	1
57.143000	145.230000	-5.694200	-15.904000	1
57.116000	145.300000	-5.357500	-15.904000	1
57.089000	145.360000	-6.034300	-15.904000	1
57.062000	145.430000	-3.629800	-15.904000	1
57.035000	145.490000	-2.226000	-15.904000	1
57.008000	145.550000	-0.873420	-15.904000	1
56.981000	145.620000	-1.536100	-15.904000	1
56.954000	145.680000	-2.626200	-15.904000	1
56.926000	145.740000	-1.561000	-15.904000	1
58.232000	142.650000	-6.356000	-15.148000	1
58.207000	142.720000	-6.680200	-15.148000	1
58.181000	142.790000	-6.364300	-15.148000	1
58.156000	142.860000	-4.620000	-15.148000	1
58.130000	142.920000	-2.900000	-15.148000	1
58.105000	142.990000	-5.334900	-15.148000	1
58.079000	143.060000	-5.991900	-15.148000	1
58.053000	143.130000	-6.355000	-15.148000	1
58.027000	143.190000	-5.652500	-15.148000	1
58.002000	143.260000	-6.342900	-15.148000	1
57.976000	143.330000	-6.005700	-15.148000	1
57.950000	143.390000	-6.707500	-15.148000	1
57.924000	143.460000	-5.993800	-15.148000	1
57.898000	143.530000	-6.010400	-15.148000	1
57.872000	143.590000	-4.963900	-15.148000	1
57.846000	143.660000	-7.048300	-15.148000	1
57.820000	143.730000	-5.667900	-15.148000	1
57.794000	143.790000	-6.015900	-15.148000	1
57.768000	143.860000	-5.992300	-15.148000	1
57.741000	143.930000	-6.016200	-15.148000	1
57.715000	143.990000	-7.389800	-15.148000	1
57.689000	144.060000	-5.993100	-15.148000	1
57.663000	144.120000	-5.993500	-15.148000	1
57.636000	144.190000	-5.653500	-15.148000	1
57.610000	144.250000	-6.708400	-15.148000	1
57.583000	144.320000	-7.035000	-15.148000	1
57.557000	144.380000	-5.002000	-15.148000	1
57.531000	144.450000	-5.995100	-15.148000	1
57.504000	144.510000	-6.702100	-15.148000	1
57.477000	144.580000	-7.052600	-15.148000	1
57.451000	144.640000	-6.362500	-15.148000	1
57.424000	144.710000	-6.346600	-15.148000	1
57.398000	144.770000	-6.724400	-15.148000	1
57.371000	144.840000	-7.058200	-15.148000	1
57.344000	144.900000	-6.684600	-15.148000	1
57.317000	144.970000	-6.018400	-15.148000	1
57.291000	145.030000	-5.338200	-15.148000	1
57.264000	145.100000	-5.338600	-15.148000	1
57.237000	145.160000	-5.315000	-15.148000	1
57.210000	145.220000	-4.988900	-15.148000	1
57.183000	145.290000	-4.662900	-15.148000	1
57.156000	145.350000	-5.996100	-15.148000	1
57.129000	145.420000	-4.299600	-15.148000	1
57.102000	145.480000	-3.601900	-15.148000	1
57.075000	145.540000	-0.850260	-15.148000	1
57.048000	145.610000	0.163380	-15.148000	1
58.576000	141.880000	-7.604400	-14.394000	1
58.551000	141.950000	-7.941700	-14.394000	1
58.526000	142.020000	-7.599300	-14.395000	1
58.501000	142.090000	-7.599300	-14.394000	1
58.476000	142.160000	-7.258000	-14.394000	1
58.450000	142.230000	-7.261800	-14.394000	1
58.425000	142.300000	-7.602500	-14.394000	1
58.400000	142.370000	-8.293100	-14.394000	1
58.375000	142.430000	-8.291000	-14.394000	1
58.349000	142.500000	-6.568800	-14.394000	1
58.324000	142.570000	-6.906900	-14.394000	1
58.298000	142.640000	-5.880400	-14.394000	1
58.273000	142.710000	-5.883200	-14.394000	1
58.247000	142.770000	-5.187200	-14.394000	1
58.222000	142.840000	-5.193800	-14.394000	1
58.196000	142.910000	-5.884400	-14.394000	1
58.171000	142.980000	-5.544700	-14.394000	1
58.145000	143.040000	-5.188700	-14.394000	1
58.119000	143.110000	-4.502500	-14.394000	1
58.094000	143.180000	-4.846400	-14.394000	1
58.068000	143.250000	-5.880900	-14.394000	1
58.042000	143.310000	-5.881100	-14.394000	1
58.016000	143.380000	-6.912000	-14.394000	1
57.990000	143.450000	-7.280200	-14.394000	1
57.964000	143.510000	-5.878600	-14.394000	1
57.938000	143.580000	-5.878800	-14.394000	1
57.912000	143.650000	-4.852300	-14.394000	1
57.886000	143.710000	-6.219300	-14.394000	1
57.860000	143.780000	-6.219600	-14.394000	1
57.834000	143.850000	-5.539700	-14.394000	1
57.808000	143.910000	-5.880100	-14.394000	1
57.781000	143.980000	-6.226800	-14.394000	1
57.755000	144.040000	-5.217800	-14.394000	1
57.729000	144.110000	-6.224700	-14.394000	1
57.703000	144.180000	-6.915400	-14.394000	1
57.676000	144.240000	-6.918200	-14.394000	1
57.650000	144.310000	-6.222000	-14.394000	1
57.623000	144.370000	-4.852300	-14.394000	1
57.597000	144.440000	-4.849000	-14.394000	1
57.570000	144.500000	-5.545800	-14.394000	1
57.544000	144.570000	-5.907600	-14.394000	1
57.517000	144.630000	-6.570900	-14.394000	1
57.491000	144.700000	-6.224600	-14.394000	1
57.464000	144.760000	-7.283200	-14.394000	1
57.437000	144.830000	-5.881400	-14.394000	1
57.410000	144.890000	-5.545300	-14.394000	1
57.384000	144.960000	-6.576300	-14.394000	1
57.357000	145.020000	-6.222400	-14.394000	1
57.330000	145.090000	-4.505700	-14.394000	1
57.303000	145.150000	-4.506000	-14.394000	1
57.276000	145.210000	-4.856500	-14.394000	1
57.249000	145.280000	-4.506500	-14.394000	1
57.222000	145.340000	-5.193200	-14.394000	1
57.195000	145.410000	-4.166800	-14.394000	1
57.168000	145.470000	-3.838400	-14.394000	1
57.141000	145.530000	-2.115100	-14.394000	1
57.114000	145.600000	0.316380	-14.394000	1
57.087000	145.660000	2.018800	-14.394000	1
58.313000	142.760000	-6.200600	-13.637000	1
58.288000	142.830000	-4.493900	-13.637000	1
58.262000	142.900000	-3.790500	-13.636000	1
58.237000	142.960000	-5.168700	-13.637000	1
58.211000	143.030000	-4.821400	-13.637000	1
58.185000	143.100000	-4.481800	-13.636000	1
58.160000	143.170000	-4.482200	-13.636000	1
58.134000	143.230000	-3.792400	-13.636000	1
58.108000	143.300000	-3.452600	-13.636000	1
58.082000	143.370000	-5.511100	-13.637000	1
58.056000	143.430000	-4.821300	-13.636000	1
58.030000	143.500000	-4.147700	-13.637000	1
58.004000	143.570000	-5.170600	-13.637000	1
57.978000	143.630000	-4.130700	-13.637000	1
57.952000	143.700000	-4.824900	-13.637000	1
57.926000	143.770000	-5.512900	-13.636000	1
57.900000	143.830000	-6.205900	-13.637000	1
57.874000	143.900000	-5.529600	-13.637000	1
57.848000	143.970000	-6.541100	-13.636000	1
57.821000	144.030000	-5.187000	-13.637000	1
57.795000	144.100000	-4.837400	-13.636000	1
57.769000	144.160000	-5.864200	-13.637000	1
57.742000	144.230000	-6.558300	-13.636000	1
57.716000	144.300000	-6.201200	-13.636000	1
57.690000	144.360000	-6.893100	-13.637000	1
57.663000	144.430000	-4.822400	-13.637000	1
57.637000	144.490000	-3.795100	-13.636000	1
57.610000	144.560000	-6.203500	-13.637000	1
57.583000	144.620000	-4.823600	-13.636000	1
57.557000	144.690000	-5.514100	-13.636000	1
57.530000	144.750000	-5.864600	-13.637000	1
57.503000	144.820000	-6.547800	-13.636000	1
57.477000	144.880000	-5.878900	-13.637000	1
57.450000	144.950000	-6.896000	-13.637000	1
57.423000	145.010000	-7.250500	-13.636000	1
57.396000	145.080000	-6.896500	-13.637000	1
57.369000	145.140000	-5.189300	-13.636000	1
57.342000	145.200000	-3.806900	-13.636000	1
57.315000	145.270000	-5.187300	-13.636000	1
57.288000	145.330000	-5.530300	-13.636000	1
57.261000	145.400000	-4.147700	-13.636000	1
57.234000	145.460000	-4.837900	-13.636000	1
57.207000	145.520000	-5.528500	-13.636000	1
57.180000	145.590000	-3.794300	-13.636000	1
57.153000	145.650000	-0.693890	-13.636000	1
57.126000	145.720000	-0.025326	-13.636000	1
57.099000	145.780000	-0.002795	-13.636000	1
58.354000	142.810000	-5.169300	-12.877000	1
58.328000	142.880000	-4.829500	-12.877000	1
58.302000	142.950000	-5.173800	-12.877000	1
58.277000	143.020000	-4.826500	-12.877000	1
58.251000	143.080000	-4.140500	-12.877000	1
58.225000	143.150000	-3.804600	-12.877000	1
58.200000	143.220000	-5.525600	-12.877000	1
58.174000	143.290000	-4.141700	-12.877000	1
58.148000	143.350000	-4.464600	-12.877000	1
58.122000	143.420000	-4.146200	-12.877000	1
58.096000	143.490000	-3.817200	-12.877000	1
58.070000	143.550000	-4.476400	-12.877000	1
58.044000	143.620000	-3.800300	-12.877000	1
58.018000	143.690000	-4.848400	-12.877000	1
57.992000	143.750000	-4.481000	-12.877000	1
57.966000	143.820000	-6.534500	-12.877000	1
57.940000	143.890000	-6.548500	-12.877000	1
57.914000	143.950000	-5.526000	-12.877000	1
57.887000	144.020000	-5.880200	-12.877000	1
57.861000	144.090000	-5.176400	-12.877000	1
57.835000	144.150000	-5.176700	-12.877000	1
57.808000	144.220000	-5.523300	-12.877000	1
57.782000	144.280000	-6.213900	-12.877000	1
57.756000	144.350000	-6.558200	-12.877000	1
57.729000	144.410000	-6.218400	-12.877000	1
57.703000	144.480000	-4.838000	-12.877000	1
57.676000	144.550000	-3.454400	-12.877000	1
57.649000	144.610000	-4.144800	-12.877000	1
57.623000	144.680000	-2.761900	-12.877000	1
57.596000	144.740000	-2.423500	-12.877000	1
57.569000	144.810000	-3.804100	-12.877000	1
57.543000	144.870000	-4.484600	-12.877000	1
57.516000	144.940000	-4.501200	-12.877000	1
57.489000	145.000000	-5.868100	-12.877000	1
57.462000	145.070000	-5.868500	-12.877000	1
57.435000	145.130000	-6.216400	-12.877000	1
57.409000	145.190000	-3.472000	-12.877000	1
57.382000	145.260000	-3.132300	-12.877000	1
57.355000	145.320000	-4.148900	-12.877000	1
57.328000	145.390000	-4.837000	-12.877000	1
57.301000	145.450000	-5.529900	-12.877000	1
57.273000	145.520000	-5.177600	-12.877000	1
57.246000	145.580000	-3.457300	-12.877000	1
57.219000	145.640000	-4.147700	-12.877000	1
57.192000	145.710000	-3.120000	-12.877000	1
57.165000	145.770000	-3.453400	-12.877000	1
57.137000	145.830000	-2.767000	-12.877000	1
57.110000	145.900000	-1.046900	-12.877000	1
57.083000	145.960000	1.016900	-12.877000	1
58.394000	142.870000	-4.040800	-12.117000	1
58.368000	142.930000	-4.064900	-12.117000	1
58.342000	143.000000	-4.065300	-12.117000	1
58.317000	143.070000	-3.712600	-12.117000	1
58.291000	143.140000	-5.433400	-12.117000	1
58.265000	143.200000	-3.689700	-12.117000	1
58.239000	143.270000	-4.404200	-12.117000	1
58.214000	143.340000	-4.380700	-12.117000	1
58.188000	143.410000	-4.064900	-12.117000	1
58.162000	143.470000	-4.041400	-12.117000	1
58.136000	143.540000	-5.072000	-12.117000	1
58.110000	143.610000	-4.079600	-12.117000	1
58.084000	143.670000	-3.723500	-12.117000	1
58.058000	143.740000	-4.754000	-12.117000	1
58.032000	143.810000	-4.746800	-12.117000	1
58.005000	143.870000	-5.437400	-12.117000	1
57.979000	143.940000	-6.127800	-12.117000	1
57.953000	144.010000	-6.128200	-12.117000	1
57.927000	144.070000	-5.098000	-12.117000	1
57.901000	144.140000	-4.415600	-12.117000	1
57.874000	144.210000	-5.438800	-12.117000	1
57.848000	144.270000	-5.799900	-12.117000	1
57.821000	144.340000	-6.830800	-12.117000	1
57.795000	144.400000	-6.824800	-12.117000	1
57.768000	144.470000	-4.754300	-12.117000	1
57.742000	144.530000	-3.693000	-12.117000	1
57.715000	144.600000	-5.445300	-12.117000	1
57.689000	144.670000	-5.801900	-12.117000	1
57.662000	144.730000	-5.438500	-12.117000	1
57.635000	144.800000	-1.997900	-12.117000	1
