La	Lo	Sig	Theta	Ice
56.176000	138.890000	-8.784600	-18.182000	1
56.148000	138.950000	-8.433600	-18.182000	1
56.120000	139.010000	-6.698500	-18.181000	1
56.092000	139.070000	-7.400500	-18.182000	1
56.064000	139.130000	-7.740400	-18.182000	1
56.036000	139.190000	-7.748100	-18.182000	1
56.008000	139.250000	-8.439400	-18.182000	1
55.980000	139.310000	-8.439600	-18.181000	1
55.951000	139.370000	-9.124300	-18.182000	1
55.923000	139.430000	-8.428900	-18.181000	1
55.895000	139.490000	-8.780500	-18.181000	1
55.867000	139.550000	-9.114000	-18.182000	1
55.838000	139.610000	-9.472100	-18.181000	1
55.810000	139.670000	-9.489300	-18.181000	1
55.782000	139.730000	-9.461100	-18.182000	1
55.753000	139.790000	-8.798700	-18.181000	1
55.725000	139.850000	-9.472200	-18.182000	1
55.696000	139.910000	-9.088600	-18.181000	1
55.668000	139.970000	-8.742200	-18.181000	1
55.639000	140.030000	-9.082200	-18.181000	1
55.611000	140.080000	-9.082300	-18.181000	1
55.582000	140.140000	-9.433100	-18.181000	1
55.553000	140.200000	-9.773600	-18.181000	1
55.525000	140.260000	-9.784100	-18.181000	1
55.496000	140.320000	-10.121000	-18.181000	1
55.467000	140.380000	-10.449000	-18.181000	1
55.438000	140.440000	-10.461000	-18.181000	1
55.410000	140.500000	-9.417400	-18.181000	1
55.381000	140.550000	-9.430000	-18.181000	1
55.352000	140.610000	-9.430200	-18.181000	1
55.323000	140.670000	-9.066700	-18.181000	1
55.294000	140.730000	-9.100400	-18.181000	1
55.265000	140.790000	-8.062500	-18.181000	1
55.236000	140.840000	-8.062000	-18.181000	1
55.207000	140.900000	-9.066800	-18.181000	1
55.178000	140.960000	-9.093500	-18.181000	1
55.149000	141.020000	-9.067400	-18.181000	1
55.120000	141.070000	-8.412800	-18.181000	1
55.091000	141.130000	-8.402300	-18.181000	1
55.062000	141.190000	-9.064100	-18.181000	1
55.032000	141.250000	-9.077100	-18.181000	1
55.003000	141.300000	-9.441300	-18.181000	1
54.974000	141.360000	-9.428500	-18.181000	1
54.945000	141.420000	-8.737700	-18.181000	1
54.915000	141.470000	-8.738100	-18.181000	1
54.886000	141.530000	-9.416600	-18.181000	1
54.857000	141.590000	-9.416900	-18.181000	1
54.827000	141.640000	-9.066400	-18.181000	1
54.798000	141.700000	-9.067200	-18.181000	1
54.768000	141.760000	-9.417600	-18.181000	1
54.739000	141.810000	-9.758700	-18.180000	1
54.709000	141.870000	-9.080200	-18.181000	1
54.680000	141.930000	-10.122000	-18.180000	1
54.650000	141.980000	-9.444800	-18.180000	1
54.620000	142.040000	-8.736800	-18.181000	1
54.591000	142.090000	-7.693500	-18.180000	1
54.561000	142.150000	-8.071600	-18.180000	1
54.531000	142.210000	-8.060900	-18.180000	1
54.502000	142.260000	-7.725300	-18.180000	1
54.472000	142.320000	-8.068400	-18.180000	1
54.442000	142.370000	-8.411300	-18.180000	1
54.412000	142.430000	-8.061500	-18.180000	1
54.382000	142.480000	-6.691500	-18.180000	1
54.352000	142.540000	-6.340800	-18.180000	1
54.323000	142.590000	-7.036100	-18.180000	1
54.293000	142.650000	-8.070000	-18.180000	1
54.263000	142.700000	-6.692600	-18.180000	1
54.233000	142.760000	-5.624900	-18.180000	1
54.203000	142.810000	-5.656200	-18.180000	1
54.173000	142.870000	-4.968600	-18.180000	1
54.143000	142.920000	-2.586600	-18.180000	1
54.113000	142.980000	-4.300100	-18.180000	1
54.082000	143.030000	-6.652700	-18.180000	1
54.052000	143.090000	-7.034500	-18.180000	1
54.022000	143.140000	-6.671000	-18.180000	1
53.992000	143.190000	-7.035200	-18.180000	1
53.961000	143.250000	-7.041800	-18.180000	1
53.931000	143.300000	-7.732500	-18.180000	1
53.901000	143.360000	-8.061700	-18.180000	1
53.871000	143.410000	-7.729200	-18.180000	1
53.840000	143.460000	-7.729600	-18.180000	1
53.810000	143.520000	-9.067500	-18.180000	1
53.779000	143.570000	-7.383100	-18.180000	1
53.749000	143.630000	-8.067500	-18.180000	1
53.719000	143.680000	-6.682800	-18.180000	1
53.688000	143.730000	-6.348600	-18.180000	1
53.658000	143.790000	-6.700100	-18.180000	1
53.627000	143.840000	-5.655900	-18.180000	1
53.596000	143.890000	-6.349000	-18.180000	1
53.566000	143.950000	-6.019900	-18.180000	1
53.535000	144.000000	-4.964600	-18.179000	1
53.505000	144.050000	-4.962100	-18.180000	1
53.474000	144.100000	-9.792300	-18.180000	1
53.443000	144.160000	-21.556000	-18.180000	1
56.604000	138.080000	-6.557900	-17.424000	1
56.577000	138.140000	-9.992200	-17.424000	1
56.549000	138.210000	-13.088000	-17.424000	1
56.522000	138.270000	-15.523000	-17.424000	1
56.494000	138.330000	-11.713000	-17.424000	1
56.466000	138.390000	-12.750000	-17.424000	1
56.439000	138.450000	-9.652000	-17.424000	1
56.411000	138.520000	-17.246000	-17.424000	1
56.383000	138.580000	-12.047000	-17.424000	1
56.355000	138.640000	-9.644200	-17.424000	1
56.328000	138.700000	-9.294500	-17.424000	1
56.300000	138.760000	-9.974700	-17.424000	1
56.272000	138.820000	-7.923800	-17.424000	1
56.244000	138.880000	-7.577400	-17.424000	1
56.216000	138.940000	-8.952600	-17.424000	1
56.188000	139.000000	-8.619100	-17.424000	1
56.160000	139.060000	-8.602200	-17.424000	1
56.132000	139.130000	-7.238700	-17.424000	1
56.104000	139.190000	-7.579200	-17.424000	1
56.076000	139.250000	-9.295100	-17.424000	1
56.047000	139.310000	-8.603900	-17.424000	1
56.019000	139.370000	-8.614800	-17.424000	1
55.991000	139.430000	-8.618300	-17.424000	1
55.963000	139.490000	-8.618600	-17.424000	1
55.935000	139.550000	-8.612700	-17.424000	1
55.906000	139.610000	-9.299400	-17.424000	1
55.878000	139.670000	-9.307000	-17.424000	1
55.850000	139.730000	-8.942100	-17.424000	1
55.821000	139.790000	-9.633000	-17.424000	1
55.793000	139.850000	-8.942400	-17.424000	1
55.764000	139.900000	-8.619200	-17.424000	1
55.736000	139.960000	-8.613700	-17.424000	1
55.707000	140.020000	-8.241900	-17.424000	1
55.679000	140.080000	-9.280700	-17.424000	1
55.650000	140.140000	-8.600300	-17.423000	1
55.621000	140.200000	-7.909500	-17.423000	1
55.593000	140.260000	-9.274000	-17.424000	1
55.564000	140.320000	-8.938100	-17.423000	1
55.535000	140.380000	-8.941100	-17.423000	1
55.506000	140.440000	-9.631800	-17.423000	1
55.478000	140.490000	-10.672000	-17.423000	1
55.449000	140.550000	-8.600300	-17.423000	1
55.420000	140.610000	-8.244300	-17.423000	1
55.391000	140.670000	-8.937400	-17.423000	1
55.362000	140.730000	-8.610900	-17.423000	1
55.333000	140.780000	-8.951500	-17.423000	1
55.304000	140.840000	-7.927800	-17.423000	1
55.275000	140.900000	-8.239600	-17.423000	1
55.246000	140.960000	-7.904100	-17.423000	1
55.217000	141.020000	-7.213600	-17.423000	1
55.188000	141.070000	-7.556700	-17.423000	1
55.159000	141.130000	-8.245200	-17.423000	1
55.130000	141.190000	-8.935700	-17.423000	1
55.100000	141.250000	-8.248000	-17.423000	1
55.071000	141.300000	-7.554900	-17.423000	1
55.042000	141.360000	-8.598700	-17.423000	1
55.013000	141.420000	-8.246000	-17.423000	1
54.983000	141.470000	-8.597100	-17.423000	1
54.954000	141.530000	-7.919200	-17.423000	1
54.925000	141.590000	-9.274900	-17.423000	1
54.895000	141.640000	-8.943300	-17.423000	1
54.866000	141.700000	-9.277900	-17.423000	1
54.836000	141.760000	-8.267900	-17.423000	1
54.807000	141.810000	-8.611400	-17.423000	1
54.777000	141.870000	-8.604100	-17.423000	1
54.748000	141.930000	-8.959300	-17.423000	1
54.718000	141.980000	-9.276400	-17.423000	1
54.688000	142.040000	-9.644700	-17.423000	1
54.659000	142.100000	-8.245800	-17.423000	1
54.629000	142.150000	-8.953300	-17.423000	1
54.599000	142.210000	-8.269400	-17.423000	1
54.570000	142.260000	-7.905900	-17.423000	1
54.540000	142.320000	-7.555700	-17.423000	1
54.510000	142.370000	-8.620900	-17.423000	1
54.480000	142.430000	-7.920500	-17.423000	1
54.450000	142.490000	-7.903500	-17.422000	1
54.420000	142.540000	-7.230500	-17.423000	1
54.391000	142.600000	-5.141900	-17.422000	1
54.361000	142.650000	-6.880500	-17.422000	1
54.331000	142.710000	-6.207900	-17.422000	1
54.301000	142.760000	-4.137200	-17.422000	1
54.271000	142.820000	-2.082800	-17.423000	1
54.241000	142.870000	-3.796200	-17.422000	1
54.211000	142.930000	-5.833500	-17.422000	1
54.181000	142.980000	-6.201500	-17.422000	1
54.150000	143.030000	-6.864500	-17.422000	1
54.120000	143.090000	-8.263500	-17.422000	1
54.090000	143.140000	-6.883000	-17.422000	1
54.060000	143.200000	-7.552600	-17.422000	1
54.029000	143.250000	-6.862000	-17.422000	1
53.999000	143.310000	-6.879800	-17.422000	1
53.969000	143.360000	-7.230600	-17.422000	1
53.939000	143.410000	-7.553100	-17.422000	1
53.908000	143.470000	-6.880300	-17.422000	1
53.878000	143.520000	-5.849800	-17.422000	1
53.847000	143.580000	-8.269100	-17.422000	1
53.817000	143.630000	-7.571400	-17.422000	1
53.787000	143.680000	-6.548000	-17.422000	1
53.756000	143.740000	-5.832900	-17.422000	1
53.725000	143.790000	-5.833300	-17.422000	1
53.695000	143.840000	-5.167600	-17.422000	1
53.664000	143.900000	-5.160500	-17.422000	1
53.634000	143.950000	-4.826700	-17.422000	1
53.603000	144.000000	-5.829500	-17.422000	1
53.573000	144.060000	-6.203500	-17.422000	1
53.542000	144.110000	-11.734000	-17.422000	1
53.511000	144.160000	-21.071000	-17.422000	1
56.672000	138.080000	-5.436500	-16.661000	1
56.644000	138.140000	-4.735100	-16.661000	1
56.617000	138.200000	-6.476900	-16.661000	1
56.589000	138.260000	-15.437000	-16.661000	1
56.562000	138.320000	-20.256000	-16.661000	1
56.534000	138.390000	-14.393000	-16.661000	1
56.506000	138.450000	-9.898100	-16.661000	1
56.479000	138.510000	-7.825900	-16.661000	1
56.451000	138.570000	-4.758200	-16.661000	1
56.423000	138.630000	-16.788000	-16.661000	1
56.395000	138.690000	-8.516800	-16.661000	1
56.367000	138.760000	-6.817700	-16.661000	1
56.340000	138.820000	-8.201500	-16.661000	1
56.312000	138.880000	-7.507500	-16.661000	1
56.284000	138.940000	-8.167300	-16.661000	1
56.256000	139.000000	-7.484500	-16.661000	1
56.228000	139.060000	-7.134700	-16.661000	1
56.200000	139.120000	-8.203200	-16.661000	1
56.172000	139.180000	-7.826200	-16.661000	1
56.143000	139.240000	-7.826500	-16.661000	1
56.115000	139.300000	-8.891800	-16.661000	1
56.087000	139.360000	-7.827200	-16.661000	1
56.059000	139.420000	-8.518400	-16.661000	1
56.031000	139.480000	-8.542500	-16.661000	1
56.002000	139.540000	-9.573800	-16.661000	1
55.974000	139.600000	-8.546500	-16.661000	1
55.946000	139.660000	-8.539900	-16.661000	1
55.917000	139.720000	-9.928800	-16.661000	1
55.889000	139.780000	-7.508600	-16.661000	1
55.860000	139.840000	-8.893800	-16.661000	1
55.832000	139.900000	-10.262000	-16.661000	1
55.804000	139.960000	-8.894400	-16.661000	1
55.775000	140.020000	-8.226800	-16.661000	1
55.746000	140.080000	-8.209900	-16.661000	1
55.718000	140.140000	-8.223800	-16.661000	1
55.689000	140.200000	-8.224000	-16.661000	1
55.661000	140.260000	-8.210300	-16.661000	1
55.632000	140.320000	-8.893300	-16.661000	1
55.603000	140.370000	-8.568200	-16.661000	1
55.574000	140.430000	-8.206900	-16.661000	1
55.545000	140.490000	-8.897300	-16.661000	1
55.517000	140.550000	-8.922500	-16.661000	1
55.488000	140.610000	-8.546900	-16.661000	1
55.459000	140.670000	-8.564400	-16.661000	1
55.430000	140.730000	-7.183700	-16.660000	1
55.401000	140.780000	-7.520000	-16.661000	1
55.372000	140.840000	-7.187400	-16.661000	1
55.343000	140.900000	-7.187500	-16.661000	1
55.314000	140.960000	-8.206900	-16.661000	1
55.285000	141.020000	-7.534300	-16.661000	1
55.256000	141.070000	-7.857400	-16.661000	1
55.227000	141.130000	-7.180600	-16.661000	1
55.198000	141.190000	-7.878700	-16.661000	1
55.168000	141.250000	-8.225400	-16.661000	1
55.139000	141.300000	-7.871800	-16.661000	1
55.110000	141.360000	-7.531800	-16.661000	1
55.080000	141.420000	-8.904300	-16.661000	1
55.051000	141.470000	-7.539900	-16.660000	1
55.022000	141.530000	-8.214300	-16.661000	1
54.992000	141.590000	-9.240500	-16.660000	1
54.963000	141.650000	-8.231300	-16.660000	1
54.934000	141.700000	-9.260200	-16.660000	1
54.904000	141.760000	-8.232000	-16.660000	1
54.875000	141.820000	-8.228400	-16.660000	1
54.845000	141.870000	-9.255300	-16.660000	1
54.816000	141.930000	-8.212800	-16.660000	1
54.786000	141.980000	-7.538600	-16.660000	1
54.756000	142.040000	-8.208100	-16.660000	1
54.727000	142.100000	-8.221800	-16.660000	1
54.697000	142.150000	-8.225900	-16.660000	1
54.667000	142.210000	-8.904200	-16.660000	1
54.638000	142.260000	-8.229900	-16.660000	1
54.608000	142.320000	-8.227700	-16.660000	1
54.578000	142.380000	-7.523500	-16.660000	1
54.548000	142.430000	-8.576000	-16.660000	1
54.518000	142.490000	-7.878200	-16.660000	1
54.488000	142.540000	-7.536700	-16.660000	1
54.458000	142.600000	-6.509900	-16.660000	1
54.429000	142.650000	-6.494000	-16.660000	1
54.399000	142.710000	-3.410400	-16.660000	1
54.369000	142.760000	-3.729600	-16.660000	1
54.339000	142.820000	-6.153400	-16.660000	1
54.309000	142.870000	-6.168400	-16.660000	1
54.279000	142.930000	-6.505200	-16.660000	1
54.248000	142.980000	-6.141500	-16.660000	1
54.218000	143.040000	-7.172200	-16.660000	1
54.188000	143.090000	-7.184900	-16.660000	1
54.158000	143.150000	-7.876000	-16.660000	1
54.128000	143.200000	-7.880100	-16.660000	1
54.097000	143.260000	-6.841900	-16.660000	1
54.067000	143.310000	-7.187500	-16.660000	1
54.037000	143.360000	-7.174200	-16.660000	1
54.006000	143.420000	-6.507900	-16.660000	1
53.976000	143.470000	-5.467400	-16.660000	1
53.946000	143.530000	-5.450100	-16.660000	1
53.915000	143.580000	-5.131300	-16.660000	1
53.885000	143.630000	-4.786400	-16.660000	1
53.854000	143.690000	-4.080000	-16.659000	1
53.824000	143.740000	-6.154600	-16.660000	1
53.793000	143.790000	-5.110600	-16.659000	1
53.763000	143.850000	-4.784300	-16.659000	1
53.732000	143.900000	-4.420400	-16.660000	1
53.702000	143.950000	-4.420400	-16.659000	1
53.671000	144.010000	-2.398700	-16.660000	1
53.640000	144.060000	-2.738900	-16.660000	1
53.610000	144.110000	-4.809600	-16.659000	1
53.579000	144.170000	-8.257700	-16.660000	1
56.239000	139.180000	-7.420000	-15.903000	1
56.211000	139.240000	-7.420300	-15.903000	1
56.183000	139.300000	-7.773700	-15.903000	1
56.154000	139.360000	-8.114800	-15.903000	1
56.126000	139.420000	-8.108400	-15.903000	1
56.098000	139.480000	-8.799700	-15.903000	1
56.070000	139.540000	-8.442000	-15.903000	1
56.041000	139.600000	-9.474800	-15.903000	1
56.013000	139.660000	-8.459600	-15.903000	1
55.985000	139.720000	-8.442500	-15.903000	1
55.956000	139.780000	-8.442500	-15.903000	1
55.928000	139.840000	-8.800900	-15.903000	1
55.899000	139.900000	-9.151100	-15.903000	1
55.871000	139.960000	-9.475300	-15.903000	1
55.842000	140.020000	-8.807500	-15.903000	1
55.814000	140.080000	-8.461000	-15.903000	1
55.785000	140.140000	-8.447200	-15.903000	1
55.757000	140.200000	-7.066300	-15.903000	1
55.728000	140.250000	-8.461100	-15.903000	1
55.699000	140.310000	-9.152000	-15.903000	1
55.670000	140.370000	-8.111000	-15.903000	1
55.642000	140.430000	-8.801700	-15.903000	1
55.613000	140.490000	-8.811600	-15.903000	1
55.584000	140.550000	-8.095500	-15.903000	1
55.555000	140.610000	-7.754900	-15.903000	1
55.526000	140.670000	-8.445600	-15.903000	1
55.497000	140.720000	-7.430900	-15.903000	1
55.468000	140.780000	-8.121700	-15.903000	1
55.439000	140.840000	-6.724400	-15.903000	1
55.410000	140.900000	-8.094200	-15.903000	1
55.381000	140.960000	-8.444500	-15.903000	1
55.352000	141.010000	-7.091100	-15.903000	1
55.323000	141.070000	-6.368200	-15.903000	1
55.294000	141.130000	-6.724800	-15.903000	1
55.265000	141.190000	-7.405400	-15.903000	1
55.236000	141.240000	-7.782300	-15.903000	1
55.206000	141.300000	-8.096100	-15.903000	1
55.177000	141.360000	-7.768900	-15.903000	1
55.148000	141.420000	-7.765400	-15.903000	1
55.119000	141.470000	-7.429300	-15.903000	1
55.089000	141.530000	-6.749300	-15.902000	1
55.060000	141.590000	-7.397300	-15.903000	1
55.030000	141.650000	-8.088300	-15.903000	1
55.001000	141.700000	-8.811600	-15.902000	1
54.972000	141.760000	-8.438900	-15.903000	1
54.942000	141.820000	-8.793300	-15.902000	1
54.913000	141.870000	-9.149000	-15.903000	1
54.883000	141.930000	-9.471000	-15.902000	1
54.853000	141.980000	-7.749500	-15.902000	1
54.824000	142.040000	-7.749900	-15.902000	1
54.794000	142.100000	-7.427100	-15.902000	1
54.764000	142.150000	-8.794700	-15.902000	1
54.735000	142.210000	-8.446700	-15.902000	1
54.705000	142.270000	-8.781400	-15.902000	1
54.675000	142.320000	-8.470200	-15.902000	1
54.645000	142.380000	-8.437600	-15.902000	1
54.616000	142.430000	-8.087700	-15.902000	1
54.586000	142.490000	-6.722900	-15.902000	1
54.556000	142.540000	-6.717100	-15.902000	1
54.526000	142.600000	-6.723500	-15.902000	1
54.496000	142.650000	-7.071200	-15.902000	1
54.466000	142.710000	-6.381300	-15.902000	1
54.436000	142.770000	-5.683600	-15.902000	1
54.406000	142.820000	-5.691300	-15.902000	1
54.376000	142.880000	-6.718500	-15.902000	1
54.346000	142.930000	-6.724800	-15.902000	1
54.316000	142.990000	-6.368600	-15.902000	1
54.286000	143.040000	-5.678500	-15.902000	1
54.256000	143.090000	-7.406000	-15.902000	1
54.225000	143.150000	-6.747200	-15.902000	1
54.195000	143.200000	-7.070000	-15.902000	1
54.165000	143.260000	-8.778100	-15.902000	1
54.135000	143.310000	-8.774900	-15.902000	1
54.104000	143.370000	-7.411000	-15.902000	1
54.074000	143.420000	-6.367100	-15.902000	1
54.043000	143.480000	-5.708200	-15.902000	1
54.013000	143.530000	-4.674300	-15.902000	1
56.362000	139.050000	-8.067700	-15.147000	1
56.334000	139.110000	-7.734200	-15.147000	1
56.306000	139.170000	-9.789900	-15.147000	1
56.278000	139.230000	-8.433200	-15.147000	1
56.250000	139.290000	-8.069200	-15.147000	1
56.221000	139.350000	-8.409900	-15.147000	1
56.193000	139.410000	-8.094000	-15.147000	1
56.165000	139.470000	-8.098100	-15.147000	1
56.137000	139.530000	-7.720800	-15.147000	1
56.108000	139.590000	-8.411300	-15.147000	1
56.080000	139.650000	-8.761900	-15.147000	1
56.052000	139.710000	-8.428200	-15.147000	1
56.023000	139.770000	-8.411800	-15.147000	1
55.995000	139.830000	-7.745500	-15.147000	1
55.966000	139.890000	-8.783000	-15.147000	1
55.938000	139.950000	-8.408700	-15.147000	1
55.909000	140.010000	-9.475200	-15.147000	1
55.881000	140.070000	-8.432300	-15.147000	1
55.852000	140.130000	-8.466800	-15.147000	1
55.823000	140.190000	-8.449300	-15.147000	1
55.795000	140.250000	-7.742500	-15.147000	1
55.766000	140.310000	-7.742700	-15.147000	1
55.737000	140.370000	-8.433500	-15.147000	1
55.709000	140.430000	-8.467500	-15.147000	1
55.680000	140.490000	-8.446100	-15.147000	1
55.651000	140.550000	-7.776800	-15.147000	1
55.622000	140.600000	-7.777000	-15.147000	1
55.593000	140.660000	-8.433800	-15.147000	1
55.564000	140.720000	-7.760800	-15.147000	1
55.535000	140.780000	-7.436800	-15.147000	1
55.506000	140.840000	-6.746400	-15.147000	1
55.477000	140.900000	-7.743300	-15.147000	1
55.448000	140.950000	-7.420900	-15.147000	1
55.419000	141.010000	-6.709200	-15.147000	1
55.390000	141.070000	-7.757500	-15.147000	1
55.361000	141.130000	-7.399700	-15.147000	1
55.332000	141.190000	-7.433700	-15.147000	1
55.303000	141.240000	-7.740100	-15.147000	1
55.273000	141.300000	-8.122000	-15.147000	1
55.244000	141.360000	-8.448800	-15.147000	1
55.215000	141.420000	-7.758400	-15.147000	1
55.186000	141.470000	-8.449500	-15.147000	1
55.156000	141.530000	-6.727100	-15.147000	1
55.127000	141.590000	-7.401500	-15.147000	1
55.097000	141.640000	-8.123400	-15.147000	1
55.068000	141.700000	-8.800700	-15.147000	1
55.039000	141.760000	-8.110500	-15.146000	1
55.009000	141.810000	-8.110700	-15.147000	1
54.980000	141.870000	-8.450300	-15.146000	1
54.950000	141.930000	-8.464200	-15.147000	1
54.920000	141.980000	-8.448200	-15.146000	1
54.891000	142.040000	-8.108000	-15.146000	1
54.861000	142.100000	-8.108500	-15.146000	1
54.831000	142.150000	-7.772200	-15.146000	1
54.802000	142.210000	-6.727800	-15.146000	1
54.772000	142.270000	-8.091100	-15.146000	1
54.742000	142.320000	-7.775000	-15.146000	1
54.712000	142.380000	-7.758900	-15.146000	1
54.683000	142.430000	-7.759200	-15.146000	1
54.653000	142.490000	-8.782800	-15.146000	1
54.623000	142.540000	-7.096700	-15.146000	1
54.593000	142.600000	-6.743000	-15.146000	1
54.563000	142.660000	-7.095700	-15.146000	1
54.533000	142.710000	-6.729500	-15.146000	1
54.503000	142.770000	-7.420000	-15.146000	1
54.473000	142.820000	-6.739900	-15.146000	1
54.443000	142.880000	-5.373300	-15.146000	1
54.413000	142.930000	-5.713700	-15.146000	1
