La	Lo	Sig	Theta	Ice
58.428000	144.030000	-2.329900	-8.335600	1
58.402000	144.100000	-1.302600	-8.335800	1
58.376000	144.160000	-1.986900	-8.335600	1
58.350000	144.230000	-1.647300	-8.335600	1
58.324000	144.300000	-2.327600	-8.335900	1
58.298000	144.370000	-4.060900	-8.335600	1
58.272000	144.430000	-3.711300	-8.335500	1
58.246000	144.500000	-3.027700	-8.335800	1
58.219000	144.570000	-3.705700	-8.335400	1
58.193000	144.630000	-2.688300	-8.335600	1
58.167000	144.700000	-4.056300	-8.335700	1
58.140000	144.770000	-3.372700	-8.335500	1
58.114000	144.830000	-3.366600	-8.335800	1
58.087000	144.900000	-3.023000	-8.335700	1
58.061000	144.960000	-1.993200	-8.335500	1
58.034000	145.030000	-1.647000	-8.335900	1
58.008000	145.100000	-2.683700	-8.335500	1
57.981000	145.160000	-4.057800	-8.335500	1
57.954000	145.230000	-4.404200	-8.335600	1
57.928000	145.290000	-3.374300	-8.335400	1
57.901000	145.360000	-3.368200	-8.335500	1
57.874000	145.430000	-4.398500	-8.335500	1
57.847000	145.490000	-4.398800	-8.335400	1
57.821000	145.560000	-4.062500	-8.335700	1
57.794000	145.620000	-4.062700	-8.335500	1
57.767000	145.690000	-1.648900	-8.335600	1
57.740000	145.750000	-2.329400	-8.335500	1
57.713000	145.820000	-3.706000	-8.335500	1
57.686000	145.880000	-3.016000	-8.335700	1
57.659000	145.950000	-3.710100	-8.335500	1
57.632000	146.010000	-4.060400	-8.335600	1
57.604000	146.070000	-3.706800	-8.335700	1
57.577000	146.140000	-3.020700	-8.335600	1
57.550000	146.200000	-1.990800	-8.335700	1
57.523000	146.270000	-0.271000	-8.335700	1
57.496000	146.330000	-1.301400	-8.335600	1
57.468000	146.400000	-0.611500	-8.335800	1
57.441000	146.460000	-0.271850	-8.335600	1
57.414000	146.520000	-0.612160	-8.335500	1
57.386000	146.590000	0.757740	-8.335700	1
57.359000	146.650000	0.067295	-8.335400	1
57.331000	146.710000	-0.962980	-8.335600	1
57.304000	146.780000	0.066795	-8.335700	1
57.276000	146.840000	1.110200	-8.335500	1
57.248000	146.900000	-0.609990	-8.335900	1
57.221000	146.970000	0.423490	-8.335700	1
57.193000	147.030000	5.222100	-8.335400	1
57.165000	147.090000	4.872100	-8.335800	1
58.659000	144.030000	0.050221	-5.314800	1
58.633000	144.100000	1.420000	-5.314900	1
58.607000	144.170000	-2.714200	-5.314900	1
58.581000	144.240000	0.729260	-5.314700	1
58.554000	144.310000	2.109100	-5.315000	1
58.528000	144.370000	1.422200	-5.314800	1
58.502000	144.440000	2.798200	-5.314800	1
58.476000	144.510000	2.108000	-5.315200	1
58.450000	144.580000	1.417500	-5.314900	1
58.423000	144.640000	3.487000	-5.314700	1
58.397000	144.710000	1.076800	-5.315000	1
58.371000	144.780000	-0.993850	-5.314700	1
58.344000	144.840000	0.372370	-5.314900	1
58.318000	144.910000	0.385700	-5.314900	1
58.291000	144.980000	-1.334800	-5.314700	1
58.265000	145.040000	0.385310	-5.315100	1
58.238000	145.110000	-0.318600	-5.315000	1
58.211000	145.180000	-0.995310	-5.314800	1
58.185000	145.240000	-0.995260	-5.315100	1
58.158000	145.310000	-0.305660	-5.314800	1
58.131000	145.370000	-1.335900	-5.314900	1
58.104000	145.440000	-1.686100	-5.314900	1
58.078000	145.510000	-1.010000	-5.314700	1
58.051000	145.570000	-1.700100	-5.314800	1
58.024000	145.640000	-0.643080	-5.314800	1
57.997000	145.700000	-1.683500	-5.314700	1
57.970000	145.770000	-1.333500	-5.314900	1
57.943000	145.830000	-1.683800	-5.314800	1
57.916000	145.900000	-0.317420	-5.315000	1
57.889000	145.960000	-0.317770	-5.314800	1
57.862000	146.030000	0.032031	-5.314800	1
57.835000	146.090000	1.061900	-5.315000	1
57.808000	146.160000	0.711570	-5.314800	1
57.780000	146.220000	1.401400	-5.314900	1
57.753000	146.290000	2.431300	-5.315100	1
57.726000	146.350000	2.780900	-5.314900	1
57.698000	146.420000	0.710680	-5.315100	1
57.671000	146.480000	-0.653330	-5.315000	1
57.644000	146.550000	1.060000	-5.314900	1
57.616000	146.610000	2.779800	-5.315100	1
57.589000	146.670000	3.469400	-5.314900	1
57.561000	146.740000	2.435400	-5.314900	1
57.534000	146.800000	2.428800	-5.315000	1
57.506000	146.860000	3.812000	-5.314800	1
57.479000	146.930000	2.781800	-5.315000	1
57.451000	146.990000	1.751500	-5.315000	1
57.423000	147.060000	2.437600	-5.314800	1
57.396000	147.120000	3.477800	-5.315200	1
57.368000	147.180000	5.537600	-5.315100	1
57.340000	147.240000	4.507300	-5.314800	1
57.312000	147.310000	6.227400	-5.315200	1
58.618000	144.290000	4.008400	-4.559800	1
58.592000	144.360000	0.925530	-4.560100	1
58.566000	144.430000	-0.118590	-4.559900	1
58.540000	144.490000	3.684600	-4.559900	1
58.513000	144.560000	3.320900	-4.560200	1
58.487000	144.630000	2.303900	-4.560000	1
58.461000	144.700000	4.349900	-4.559800	1
58.434000	144.760000	2.643300	-4.560100	1
58.408000	144.830000	1.272700	-4.559800	1
58.382000	144.900000	2.992500	-4.560000	1
58.355000	144.960000	1.598600	-4.560000	1
58.328000	145.030000	1.271800	-4.559800	1
58.302000	145.100000	1.598300	-4.560200	1
58.275000	145.160000	0.908010	-4.560000	1
58.249000	145.230000	0.217690	-4.559900	1
58.222000	145.300000	0.564180	-4.560200	1
58.195000	145.360000	0.563740	-4.559900	1
58.168000	145.430000	0.903620	-4.560000	1
58.142000	145.490000	-0.123060	-4.560000	1
58.115000	145.560000	0.216590	-4.559800	1
58.088000	145.630000	-0.123560	-4.559900	1
58.061000	145.690000	-0.127330	-4.559900	1
58.034000	145.760000	0.565980	-4.559800	1
58.007000	145.820000	0.905960	-4.560000	1
57.980000	145.890000	-0.124370	-4.559900	1
57.953000	145.950000	0.215560	-4.560100	1
57.926000	146.020000	2.285300	-4.559900	1
57.899000	146.080000	2.285000	-4.559900	1
57.872000	146.150000	2.974900	-4.560100	1
57.844000	146.210000	1.934500	-4.559900	1
57.817000	146.280000	3.314300	-4.560000	1
57.790000	146.340000	1.934200	-4.560200	1
57.763000	146.410000	1.253800	-4.560000	1
57.735000	146.470000	1.253600	-4.560200	1
57.708000	146.540000	2.283300	-4.560100	1
57.680000	146.600000	3.679300	-4.560000	1
57.653000	146.660000	5.032800	-4.560200	1
57.625000	146.730000	3.662200	-4.560000	1
57.598000	146.790000	3.661900	-4.560000	1
57.570000	146.850000	4.341700	-4.560200	1
57.543000	146.920000	3.314800	-4.559900	1
57.515000	146.980000	2.991100	-4.560100	1
57.487000	147.050000	3.330900	-4.560100	1
57.460000	147.110000	5.724200	-4.559900	1
57.432000	147.170000	9.530800	-4.560300	1
58.656000	144.340000	3.717400	-3.804000	1
58.630000	144.410000	3.733800	-3.804300	1
58.604000	144.480000	1.310400	-3.804100	1
58.577000	144.550000	4.760100	-3.804100	1
58.551000	144.610000	5.806500	-3.804400	1
58.525000	144.680000	3.379400	-3.804300	1
58.498000	144.750000	5.098900	-3.804000	1
58.472000	144.820000	6.145300	-3.804300	1
58.445000	144.880000	5.114700	-3.804000	1
58.419000	144.950000	5.114500	-3.804200	1
58.392000	145.020000	3.734200	-3.804200	1
58.366000	145.080000	5.113800	-3.804000	1
58.339000	145.150000	3.733900	-3.804400	1
58.312000	145.220000	3.053600	-3.804200	1
58.286000	145.280000	2.013300	-3.804100	1
58.259000	145.350000	1.673300	-3.804400	1
58.232000	145.420000	1.322900	-3.804100	1
58.206000	145.480000	2.012800	-3.804200	1
58.179000	145.550000	2.699100	-3.804200	1
58.152000	145.610000	3.392200	-3.804000	1
58.125000	145.680000	2.008600	-3.804100	1
58.098000	145.740000	2.358400	-3.804100	1
58.071000	145.810000	2.011500	-3.804000	1
58.044000	145.880000	3.051600	-3.804200	1
58.017000	145.940000	0.981270	-3.804100	1
57.990000	146.010000	1.671200	-3.804300	1
57.963000	146.070000	3.730800	-3.804100	1
57.936000	146.140000	6.140600	-3.804100	1
57.908000	146.200000	4.770500	-3.804300	1
57.881000	146.270000	2.700100	-3.804100	1
57.854000	146.330000	0.289770	-3.804200	1
57.827000	146.400000	2.359700	-3.804400	1
57.799000	146.460000	1.669300	-3.804200	1
57.772000	146.520000	4.079200	-3.804400	1
57.744000	146.590000	3.728800	-3.804400	1
57.717000	146.650000	6.138400	-3.804200	1
57.689000	146.720000	5.448300	-3.804500	1
57.662000	146.780000	5.447800	-3.804200	1
57.634000	146.850000	5.114000	-3.804200	1
57.607000	146.910000	5.797300	-3.804400	1
57.579000	146.970000	4.423200	-3.804100	1
57.552000	147.040000	5.450300	-3.804300	1
57.524000	147.100000	7.520100	-3.804300	1
58.641000	144.530000	7.588100	-3.048000	1
58.615000	144.600000	8.974800	-3.048000	1
58.588000	144.670000	7.944600	-3.048300	1
58.562000	144.730000	9.310800	-3.048100	1
58.536000	144.800000	4.150200	-3.047900	1
58.509000	144.870000	4.490000	-3.048200	1
58.483000	144.940000	7.239400	-3.047900	1
58.456000	145.000000	7.589200	-3.048000	1
58.430000	145.070000	4.149000	-3.048100	1
58.403000	145.140000	3.458600	-3.047900	1
58.376000	145.200000	3.458700	-3.048200	1
58.350000	145.270000	2.078400	-3.048100	1
58.323000	145.340000	3.458100	-3.048000	1
58.296000	145.400000	1.388100	-3.048300	1
58.269000	145.470000	2.427700	-3.048000	1
58.243000	145.530000	4.487600	-3.048100	1
58.216000	145.600000	5.177400	-3.048100	1
58.189000	145.670000	4.487000	-3.047900	1
58.162000	145.730000	3.796800	-3.048000	1
58.135000	145.800000	4.486700	-3.048000	1
58.108000	145.860000	5.176300	-3.047900	1
58.081000	145.930000	4.486300	-3.048100	1
58.054000	145.990000	5.176300	-3.048000	1
58.027000	146.060000	4.486100	-3.048200	1
58.000000	146.120000	4.485700	-3.048000	1
57.972000	146.190000	6.545500	-3.048000	1
57.945000	146.250000	5.175400	-3.048200	1
57.918000	146.320000	5.865000	-3.048000	1
57.891000	146.380000	3.794700	-3.048100	1
57.863000	146.450000	5.174600	-3.048300	1
57.836000	146.510000	6.204200	-3.048100	1
57.808000	146.580000	6.544100	-3.048300	1
57.781000	146.640000	7.923700	-3.048300	1
57.753000	146.710000	5.863300	-3.048100	1
57.726000	146.770000	5.513100	-3.048400	1
57.698000	146.840000	6.892600	-3.048100	1
57.671000	146.900000	7.229000	-3.048100	1
57.643000	146.960000	7.918800	-3.048300	1
57.616000	147.030000	7.581600	-3.048000	1
57.588000	147.090000	8.268300	-3.048200	1
57.560000	147.150000	11.025000	-3.048200	1
58.704000	144.520000	9.451300	-2.296700	1
58.678000	144.580000	9.450700	-2.296500	1
58.652000	144.650000	11.167000	-2.296400	1
58.625000	144.720000	14.257000	-2.296800	1
58.599000	144.790000	12.887000	-2.296600	1
58.573000	144.850000	7.729800	-2.296400	1
58.546000	144.920000	8.069600	-2.296700	1
58.520000	144.990000	9.789000	-2.296400	1
58.493000	145.060000	7.378800	-2.296500	1
58.466000	145.120000	6.348600	-2.296600	1
58.440000	145.190000	4.278200	-2.296400	1
58.413000	145.260000	3.598300	-2.296700	1
58.387000	145.320000	4.968000	-2.296600	1
58.360000	145.390000	4.277700	-2.296500	1
58.333000	145.460000	3.937700	-2.296800	1
58.306000	145.520000	4.967300	-2.296500	1
58.279000	145.590000	4.277100	-2.296600	1
58.252000	145.650000	3.936900	-2.296600	1
58.226000	145.720000	5.316500	-2.296400	1
58.199000	145.790000	5.316400	-2.296500	1
58.172000	145.850000	6.346200	-2.296500	1
58.145000	145.920000	6.345800	-2.296400	1
58.117000	145.980000	4.275800	-2.296600	1
58.090000	146.050000	5.315500	-2.296500	1
58.063000	146.110000	5.315400	-2.296700	1
58.036000	146.180000	5.651800	-2.296500	1
58.009000	146.240000	7.035100	-2.296500	1
57.982000	146.310000	5.315000	-2.296700	1
57.954000	146.370000	7.374600	-2.296500	1
57.927000	146.440000	7.724400	-2.296500	1
57.900000	146.500000	6.344300	-2.296800	1
57.872000	146.570000	7.033800	-2.296600	1
57.845000	146.630000	7.033700	-2.296800	1
57.817000	146.700000	7.373300	-2.296800	1
57.790000	146.760000	5.992900	-2.296600	1
57.762000	146.820000	7.372700	-2.296900	1
57.735000	146.890000	6.682200	-2.296600	1
57.707000	146.950000	8.061900	-2.296600	1
57.679000	147.020000	7.721800	-2.296800	1
57.652000	147.080000	7.721300	-2.296500	1
57.624000	147.140000	9.091300	-2.296700	1
57.596000	147.210000	10.811000	-2.296700	1
58.477000	145.240000	6.137000	-1.541300	1
58.450000	145.310000	8.897000	-1.541700	1
58.424000	145.380000	10.617000	-1.541600	1
58.397000	145.440000	6.826400	-1.541400	1
58.370000	145.510000	6.486400	-1.541700	1
58.343000	145.580000	7.856000	-1.541400	1
58.316000	145.640000	7.515900	-1.541600	1
58.289000	145.710000	7.515600	-1.541500	1
58.262000	145.770000	7.515300	-1.541400	1
58.235000	145.840000	9.575100	-1.541400	1
58.208000	145.900000	6.824900	-1.541500	1
58.181000	145.970000	6.824600	-1.541300	1
58.154000	146.040000	7.174500	-1.541500	1
58.127000	146.100000	8.544200	-1.541400	1
58.100000	146.170000	6.484000	-1.541700	1
58.073000	146.230000	5.800700	-1.541500	1
58.045000	146.300000	7.513300	-1.541500	1
58.018000	146.360000	8.550300	-1.541700	1
57.991000	146.430000	11.653000	-1.541500	1
57.963000	146.490000	10.273000	-1.541500	1
57.936000	146.560000	7.183100	-1.541700	1
57.909000	146.620000	6.492700	-1.541600	1
57.881000	146.690000	7.182500	-1.541800	1
57.854000	146.750000	8.212100	-1.541700	1
57.826000	146.810000	9.241700	-1.541600	1
57.798000	146.880000	9.931600	-1.541800	1
57.771000	146.940000	9.241100	-1.541600	1
57.743000	147.010000	8.210800	-1.541600	1
57.716000	147.070000	10.961000	-1.541800	1
57.688000	147.130000	10.960000	-1.541500	1
57.660000	147.200000	11.650000	-1.541700	1
57.632000	147.260000	11.990000	-1.541700	1
58.540000	145.230000	13.994000	-0.792920	1
58.514000	145.300000	16.074000	-0.792660	1
58.487000	145.360000	11.584000	-0.793030	1
58.460000	145.430000	11.911000	-0.792950	1
58.433000	145.500000	11.224000	-0.792770	1
58.407000	145.560000	15.354000	-0.793070	1
58.380000	145.630000	12.944000	-0.792800	1
58.353000	145.690000	10.884000	-0.792930	1
58.326000	145.760000	11.563000	-0.792900	1
58.299000	145.830000	12.253000	-0.792720	1
58.272000	145.890000	11.913000	-0.792790	1
58.245000	145.960000	12.603000	-0.792840	1
58.218000	146.020000	14.322000	-0.792670	1
58.191000	146.090000	12.942000	-0.792870	1
58.163000	146.160000	14.322000	-0.792790	1
58.136000	146.220000	13.282000	-0.793020	1
58.109000	146.290000	10.881000	-0.792840	1
58.082000	146.350000	12.941000	-0.792790	1
58.054000	146.420000	12.601000	-0.793030	1
58.027000	146.480000	16.450000	-0.792850	1
58.000000	146.550000	14.657000	-0.792820	1
57.972000	146.610000	12.597000	-0.793070	1
57.945000	146.680000	10.187000	-0.792890	1
57.917000	146.740000	10.190000	-0.793110	1
57.890000	146.800000	11.220000	-0.793070	1
57.862000	146.870000	14.659000	-0.792900	1
57.835000	146.930000	15.009000	-0.793170	1
57.807000	147.000000	15.349000	-0.792980	1
57.779000	147.060000	15.009000	-0.792940	1
57.751000	147.120000	15.348000	-0.793130	1
57.724000	147.190000	17.448000	-0.792820	1
57.696000	147.250000	16.848000	-0.793020	1
58.524000	145.420000	32.274000	0.118690	1
58.497000	145.480000	29.074000	0.118900	1
58.470000	145.550000	19.274000	0.118450	1
58.443000	145.620000	41.086000	0.118910	1
58.416000	145.680000	21.873000	0.118820	1
58.389000	145.750000	20.873000	0.118640	1
58.362000	145.810000	25.873000	0.119020	1
58.335000	145.880000	24.873000	0.118640	1
58.308000	145.950000	20.272000	0.118680	1
58.281000	146.010000	21.272000	0.118900	1
58.254000	146.080000	41.072000	0.118400	1
58.227000	146.140000	24.872000	0.118760	1
58.200000	146.210000	32.271000	0.118690	1
58.172000	146.270000	41.071000	0.118440	1
58.145000	146.340000	32.271000	0.118760	1
58.118000	146.400000	41.071000	0.118390	1
58.091000	146.470000	27.261000	0.118400	1
58.063000	146.530000	32.261000	0.118680	1
58.036000	146.600000	41.061000	0.118210	1
58.008000	146.660000	41.073000	0.118540	1
57.981000	146.730000	29.060000	0.118440	1
57.953000	146.790000	32.260000	0.118110	1
57.926000	146.860000	32.259000	0.118530	1
57.898000	146.920000	29.059000	0.118230	1
57.870000	146.990000	29.059000	0.118300	1
57.843000	147.050000	32.258000	0.118620	1
57.815000	147.120000	32.266000	0.118140	1
57.787000	147.180000	32.258000	0.118480	1
57.760000	147.240000	32.258000	0.118450	1
57.732000	147.310000	32.258000	0.118110	1
57.704000	147.370000	32.265000	0.118560	1
57.676000	147.430000	29.065000	0.118270	1
57.648000	147.500000	32.264000	0.118280	1
57.620000	147.560000	41.068000	0.118650	1
57.592000	147.620000	41.068000	0.118120	1
57.564000	147.690000	41.068000	0.118420	1
57.536000	147.750000	27.268000	0.118490	1
57.508000	147.810000	25.868000	0.118160	1
57.480000	147.880000	29.069000	0.118630	1
57.452000	147.940000	32.269000	0.118310	1
57.424000	148.000000	32.269000	0.118270	1
57.395000	148.060000	27.269000	0.118580	1
57.367000	148.130000	24.868000	0.118100	1
57.339000	148.190000	21.268000	0.118420	1
58.837000	144.920000	7.030100	1.488000	1
58.811000	144.990000	7.722400	1.487700	1
58.784000	145.050000	7.382100	1.487800	1
58.758000	145.120000	13.219000	1.487900	1
58.731000	145.190000	16.329000	1.487700	1
58.704000	145.260000	11.162000	1.488000	1
58.678000	145.320000	8.061800	1.487900	1
58.651000	145.390000	10.811000	1.487900	1
58.624000	145.460000	11.501000	1.488000	1
58.597000	145.520000	8.400800	1.487600	1
58.571000	145.590000	9.430600	1.487800	1
58.544000	145.660000	7.370400	1.487800	1
58.517000	145.720000	7.030100	1.487700	1
58.490000	145.790000	7.370000	1.487900	1
58.463000	145.860000	8.399600	1.487700	1
58.436000	145.920000	6.679500	1.487900	1
58.409000	145.990000	8.399300	1.487900	1
58.382000	146.060000	7.709000	1.487900	1
58.354000	146.120000	6.678800	1.487900	1
58.327000	146.190000	7.708500	1.487900	1
58.300000	146.250000	7.375300	1.487900	1
58.273000	146.320000	7.028000	1.487900	1
58.246000	146.380000	7.714600	1.487600	1
58.218000	146.450000	6.684400	1.487800	1
58.191000	146.510000	8.404100	1.487800	1
58.163000	146.580000	7.377300	1.487500	1
58.136000	146.640000	9.437100	1.487800	1
58.109000	146.710000	7.716700	1.487700	1
58.081000	146.770000	7.376300	1.487500	1
58.053000	146.840000	8.066000	1.487700	1
58.026000	146.900000	9.095400	1.487400	1
57.998000	146.970000	9.435100	1.487500	1
57.971000	147.030000	7.714900	1.487600	1
57.943000	147.100000	8.404500	1.487300	1
57.915000	147.160000	9.784500	1.487600	1
57.887000	147.220000	11.164000	1.487500	1
57.860000	147.290000	12.534000	1.487400	1
57.832000	147.350000	12.194000	1.487700	1
57.804000	147.420000	10.474000	1.487400	1
57.776000	147.480000	9.433400	1.487600	1
57.748000	147.540000	10.121000	1.487700	1
57.720000	147.610000	11.500000	1.487400	1
57.692000	147.670000	13.224000	1.487400	1
58.821000	145.110000	9.293700	2.236900	1
58.794000	145.180000	5.843400	2.237000	1
58.768000	145.240000	8.253000	2.236800	1
58.741000	145.310000	11.013000	2.237100	1
58.714000	145.380000	8.252400	2.237000	1
58.688000	145.440000	7.222100	2.237000	1
58.661000	145.510000	7.571900	2.237100	1
58.634000	145.580000	5.841400	2.236800	1
58.607000	145.640000	7.571200	2.236900	1
58.580000	145.710000	4.471000	2.236900	1
58.553000	145.780000	4.470700	2.236800	1
58.526000	145.840000	3.440500	2.237000	1
58.499000	145.910000	4.470200	2.236800	1
58.472000	145.980000	3.780100	2.236900	1
58.445000	146.040000	4.809900	2.237000	1
58.418000	146.110000	3.766400	2.237000	1
58.391000	146.180000	5.146200	2.237000	1
58.364000	146.240000	5.145900	2.237000	1
58.336000	146.310000	5.145600	2.237000	1
58.309000	146.370000	5.149100	2.237000	1
58.282000	146.440000	4.798500	2.236700	1
58.254000	146.500000	3.768400	2.236900	1
58.227000	146.570000	4.798100	2.236900	1
58.199000	146.630000	4.107500	2.236600	1
58.172000	146.700000	4.457400	2.236900	1
58.144000	146.760000	5.147000	2.236800	1
58.117000	146.830000	5.826600	2.236600	1
58.089000	146.890000	5.826300	2.236800	1
58.062000	146.960000	7.205700	2.236500	1
58.034000	147.020000	4.795400	2.236600	1
58.006000	147.090000	5.145200	2.236800	1
57.979000	147.150000	4.794800	2.236400	1
57.951000	147.220000	5.484800	2.236700	1
57.923000	147.280000	7.211400	2.236600	1
57.895000	147.340000	6.871100	2.236500	1
57.867000	147.410000	7.561100	2.236800	1
57.839000	147.470000	7.560700	2.236500	1
57.812000	147.530000	5.154300	2.236600	1
57.784000	147.600000	8.594500	2.236800	1
57.756000	147.660000	8.594200	2.236500	1
57.728000	147.730000	9.284300	2.236500	1
57.699000	147.790000	9.624400	2.236600	1
57.671000	147.850000	9.284300	2.236400	1
58.911000	145.030000	10.991000	2.993400	1
58.885000	145.090000	7.200700	2.993100	1
58.858000	145.160000	5.140400	2.993100	1
58.831000	145.230000	7.176800	2.993200	1
58.805000	145.300000	0.636330	2.993100	1
58.778000	145.360000	2.706200	2.993300	1
58.751000	145.430000	6.835800	2.993200	1
58.724000	145.500000	6.145500	2.993200	1
58.698000	145.570000	5.805300	2.993400	1
58.671000	145.630000	5.114700	2.993000	1
58.644000	145.700000	3.734600	2.993200	1
