La	Lo	Sig	Theta	Ice
47.010000	129.340000	-7.913400	-18.174000	1
46.975000	129.380000	-8.264300	-18.173000	1
46.941000	129.420000	-8.249900	-18.173000	1
46.906000	129.460000	-8.273100	-18.173000	1
46.871000	129.500000	-6.873800	-18.173000	1
46.836000	129.540000	-8.270300	-18.173000	1
46.801000	129.580000	-7.215100	-18.173000	1
46.766000	129.620000	-6.875300	-18.173000	1
46.731000	129.650000	-7.570100	-18.173000	1
46.696000	129.690000	-6.539800	-18.173000	1
46.661000	129.730000	-5.502500	-18.173000	1
46.626000	129.770000	-6.183100	-18.173000	1
46.591000	129.810000	-5.164500	-18.173000	1
46.556000	129.850000	-5.844100	-18.173000	1
46.521000	129.890000	-5.504600	-18.173000	1
46.486000	129.930000	-5.501300	-18.173000	1
46.451000	129.960000	-5.841800	-18.173000	1
46.416000	130.000000	-5.517100	-18.173000	1
46.381000	130.040000	-5.499100	-18.173000	1
46.345000	130.080000	-3.790200	-18.173000	1
46.310000	130.120000	-3.790900	-18.173000	1
46.275000	130.160000	-5.158200	-18.173000	1
46.240000	130.200000	-6.189100	-18.173000	1
46.205000	130.230000	-5.155700	-18.173000	1
46.170000	130.270000	-4.830900	-18.173000	1
46.134000	130.310000	-4.481200	-18.173000	1
46.099000	130.350000	-0.349670	-18.173000	1
46.064000	130.390000	-3.440200	-18.173000	1
46.028000	130.420000	-1.044100	-18.173000	1
45.993000	130.460000	-4.471600	-18.173000	1
45.958000	130.500000	-3.445300	-18.173000	1
45.923000	130.540000	-4.468800	-18.172000	1
45.887000	130.580000	-4.476600	-18.173000	1
45.852000	130.610000	-4.473200	-18.173000	1
45.816000	130.650000	-4.831400	-18.172000	1
45.781000	130.690000	-5.522200	-18.173000	1
45.746000	130.730000	-3.798200	-18.172000	1
45.710000	130.760000	-4.840400	-18.172000	1
45.675000	130.800000	-6.549900	-18.172000	1
45.639000	130.840000	-6.898300	-18.172000	1
45.604000	130.870000	-8.279600	-18.172000	1
45.569000	130.910000	-7.243200	-18.172000	1
45.533000	130.950000	-7.601400	-18.172000	1
45.498000	130.990000	-7.229200	-18.172000	1
45.462000	131.020000	-6.896900	-18.172000	1
45.427000	131.060000	-7.938900	-18.172000	1
45.391000	131.100000	-6.897600	-18.172000	1
45.355000	131.130000	-4.825700	-18.172000	1
45.320000	131.170000	-2.086300	-18.172000	1
45.284000	131.210000	-5.516000	-18.172000	1
45.249000	131.250000	-4.139700	-18.172000	1
45.213000	131.280000	-4.822800	-18.172000	1
45.177000	131.320000	-4.834400	-18.172000	1
45.142000	131.360000	-4.495900	-18.172000	1
45.106000	131.390000	-6.213300	-18.172000	1
45.070000	131.430000	-5.529700	-18.172000	1
45.035000	131.470000	-6.911900	-18.172000	1
47.042000	129.400000	-9.580800	-17.416000	1
47.008000	129.440000	-9.577900	-17.416000	1
46.973000	129.480000	-7.838400	-17.416000	1
46.938000	129.520000	-6.811800	-17.416000	1
46.903000	129.550000	-8.198000	-17.416000	1
46.868000	129.590000	-6.477800	-17.416000	1
46.833000	129.630000	-6.466800	-17.416000	1
46.798000	129.670000	-9.230600	-17.416000	1
46.763000	129.710000	-8.192500	-17.416000	1
46.728000	129.750000	-5.441300	-17.416000	1
46.693000	129.790000	-6.128400	-17.416000	1
46.658000	129.830000	-5.785200	-17.416000	1
46.623000	129.870000	-6.122000	-17.416000	1
46.588000	129.910000	-6.455100	-17.416000	1
46.553000	129.940000	-6.459500	-17.416000	1
46.518000	129.980000	-5.444400	-17.416000	1
46.483000	130.020000	-5.101000	-17.416000	1
46.448000	130.060000	-5.094300	-17.416000	1
46.412000	130.100000	-4.752300	-17.415000	1
46.377000	130.140000	-4.068500	-17.416000	1
46.342000	130.180000	-3.719100	-17.416000	1
46.307000	130.210000	-4.065900	-17.416000	1
46.272000	130.250000	-4.754100	-17.416000	1
46.236000	130.290000	-6.135400	-17.415000	1
46.201000	130.330000	-5.105300	-17.416000	1
46.166000	130.370000	-5.446000	-17.416000	1
46.131000	130.400000	-3.382100	-17.415000	1
46.095000	130.440000	-5.435600	-17.416000	1
46.060000	130.480000	-5.103500	-17.415000	1
46.025000	130.520000	-3.379800	-17.415000	1
45.989000	130.560000	-4.070400	-17.416000	1
45.954000	130.590000	-3.044100	-17.415000	1
45.919000	130.630000	-2.701800	-17.415000	1
45.883000	130.670000	-4.762700	-17.415000	1
45.848000	130.710000	-5.109700	-17.415000	1
45.813000	130.740000	-5.446300	-17.415000	1
45.777000	130.780000	-4.420300	-17.415000	1
45.742000	130.820000	-4.428300	-17.415000	1
45.706000	130.860000	-1.674500	-17.415000	1
45.671000	130.890000	-8.905900	-17.415000	1
45.635000	130.930000	-7.510000	-17.415000	1
45.600000	130.970000	-7.521900	-17.415000	1
45.564000	131.010000	-7.868500	-17.415000	1
45.529000	131.040000	-6.495500	-17.415000	1
45.493000	131.080000	-5.811800	-17.415000	1
45.458000	131.120000	-7.164100	-17.415000	1
45.422000	131.150000	-6.488900	-17.415000	1
45.387000	131.190000	-5.115000	-17.415000	1
45.351000	131.230000	-5.115100	-17.415000	1
45.315000	131.260000	-5.813400	-17.415000	1
45.280000	131.300000	-5.123600	-17.415000	1
45.244000	131.340000	-3.391900	-17.415000	1
45.208000	131.380000	-4.418800	-17.415000	1
45.173000	131.410000	-4.762800	-17.415000	1
45.137000	131.450000	-5.814900	-17.415000	1
45.101000	131.480000	-6.159300	-17.415000	1
45.066000	131.520000	-4.771600	-17.415000	1
47.075000	129.450000	-7.809100	-16.654000	1
47.040000	129.490000	-8.496000	-16.654000	1
47.005000	129.530000	-5.752600	-16.654000	1
46.970000	129.570000	-7.477600	-16.654000	1
46.935000	129.610000	-8.512600	-16.654000	1
46.900000	129.650000	-8.878600	-16.654000	1
46.865000	129.690000	-8.154500	-16.654000	1
46.830000	129.730000	-8.514600	-16.654000	1
46.795000	129.770000	-5.407900	-16.654000	1
46.760000	129.810000	-3.691600	-16.654000	1
46.725000	129.850000	-4.726200	-16.654000	1
46.690000	129.880000	-6.439700	-16.654000	1
46.655000	129.920000	-6.772600	-16.653000	1
46.620000	129.960000	-7.467300	-16.654000	1
46.585000	130.000000	-6.437500	-16.654000	1
46.550000	130.040000	-7.143500	-16.653000	1
46.515000	130.080000	-6.101900	-16.654000	1
46.479000	130.120000	-6.050900	-16.653000	1
46.444000	130.150000	-4.322000	-16.653000	1
46.409000	130.190000	-3.356500	-16.654000	1
46.374000	130.230000	-5.425100	-16.653000	1
46.339000	130.270000	-5.754800	-16.653000	1
46.303000	130.310000	-5.762600	-16.653000	1
46.268000	130.350000	-5.755500	-16.653000	1
46.233000	130.380000	-4.725500	-16.653000	1
46.198000	130.420000	-5.408800	-16.653000	1
46.162000	130.460000	-5.409300	-16.653000	1
46.127000	130.500000	-4.036700	-16.653000	1
46.092000	130.540000	-4.376100	-16.653000	1
46.056000	130.570000	-6.108600	-16.653000	1
46.021000	130.610000	-5.407500	-16.653000	1
45.986000	130.650000	-4.388800	-16.653000	1
45.950000	130.690000	-5.423300	-16.653000	1
45.915000	130.730000	-5.416200	-16.653000	1
45.880000	130.760000	-4.733600	-16.653000	1
45.844000	130.800000	-4.028700	-16.653000	1
45.809000	130.840000	-3.704200	-16.653000	1
45.773000	130.880000	-5.415400	-16.653000	1
45.738000	130.910000	-6.775000	-16.653000	1
45.702000	130.950000	-8.504200	-16.653000	1
45.667000	130.990000	-8.866200	-16.653000	1
45.631000	131.020000	-7.825900	-16.653000	1
45.596000	131.060000	-7.142200	-16.653000	1
45.560000	131.100000	-7.494100	-16.653000	1
45.525000	131.140000	-6.108700	-16.653000	1
45.489000	131.170000	-7.831200	-16.653000	1
45.454000	131.210000	-7.812200	-16.653000	1
45.418000	131.250000	-5.759100	-16.653000	1
45.382000	131.280000	-5.763100	-16.653000	1
45.347000	131.320000	-5.077000	-16.653000	1
45.311000	131.360000	-4.385900	-16.653000	1
45.275000	131.390000	-3.355800	-16.653000	1
45.240000	131.430000	-4.390400	-16.652000	1
45.204000	131.470000	-5.078500	-16.653000	1
45.168000	131.500000	-6.788500	-16.653000	1
45.133000	131.540000	-6.789000	-16.652000	1
45.097000	131.580000	-6.456500	-16.653000	1
47.106000	129.510000	-8.384400	-15.896000	1
47.071000	129.550000	-8.369600	-15.896000	1
47.037000	129.590000	-7.001000	-15.896000	1
47.002000	129.630000	-6.664600	-15.896000	1
46.967000	129.670000	-7.005600	-15.896000	1
46.932000	129.710000	-6.325700	-15.896000	1
46.897000	129.750000	-5.639500	-15.896000	1
46.862000	129.780000	-6.666800	-15.896000	1
46.827000	129.820000	-3.904800	-15.896000	1
46.791000	129.860000	-4.595500	-15.896000	1
46.756000	129.900000	-4.584800	-15.896000	1
46.721000	129.940000	-5.269200	-15.896000	1
46.686000	129.980000	-5.620000	-15.896000	1
46.651000	130.020000	-5.270300	-15.896000	1
46.616000	130.060000	-6.677800	-15.896000	1
46.581000	130.100000	-7.347300	-15.896000	1
46.546000	130.130000	-7.011300	-15.896000	1
46.511000	130.170000	-6.316100	-15.896000	1
46.476000	130.210000	-4.589900	-15.896000	1
46.440000	130.250000	-4.250200	-15.896000	1
46.405000	130.290000	-5.267400	-15.896000	1
46.370000	130.330000	-3.911300	-15.896000	1
46.335000	130.360000	-5.272200	-15.896000	1
46.299000	130.400000	-6.324800	-15.895000	1
45.698000	131.040000	-5.637700	-15.895000	1
45.662000	131.080000	-5.284200	-15.895000	1
45.627000	131.120000	-8.730400	-15.895000	1
45.591000	131.150000	-7.696200	-15.895000	1
45.555000	131.190000	-7.700200	-15.895000	1
45.520000	131.230000	-6.330000	-15.895000	1
45.484000	131.270000	-6.670400	-15.895000	1
45.449000	131.300000	-7.690200	-15.895000	1
45.413000	131.340000	-4.602600	-15.895000	1
45.377000	131.380000	-3.226500	-15.895000	1
45.342000	131.410000	-4.611100	-15.895000	1
45.306000	131.450000	-3.569200	-15.895000	1
45.270000	131.490000	-4.603800	-15.895000	1
45.234000	131.520000	-2.193600	-15.895000	1
45.199000	131.560000	-3.574200	-15.895000	1
45.163000	131.600000	-3.918600	-15.895000	1
45.127000	131.630000	-8.746500	-15.895000	1
47.138000	129.570000	-7.254800	-15.141000	1
47.103000	129.610000	-8.301000	-15.140000	1
47.068000	129.640000	-6.911700	-15.140000	1
47.033000	129.680000	-8.302000	-15.141000	1
46.998000	129.720000	-7.954500	-15.140000	1
46.963000	129.760000	-5.203800	-15.140000	1
46.928000	129.800000	-5.204300	-15.140000	1
46.893000	129.840000	-5.891200	-15.140000	1
46.858000	129.880000	-5.193900	-15.141000	1
46.823000	129.920000	-5.198400	-15.140000	1
46.788000	129.960000	-5.210100	-15.140000	1
46.752000	130.000000	-6.221700	-15.140000	1
46.717000	130.030000	-5.543400	-15.140000	1
46.682000	130.070000	-5.196200	-15.140000	1
46.647000	130.110000	-5.894400	-15.140000	1
46.612000	130.150000	-6.917900	-15.140000	1
46.577000	130.190000	-5.899100	-15.140000	1
46.542000	130.230000	-6.236300	-15.140000	1
46.507000	130.270000	-6.923200	-15.140000	1
46.471000	130.300000	-5.210500	-15.140000	1
46.436000	130.340000	-4.867300	-15.140000	1
46.401000	130.380000	-4.871600	-15.140000	1
46.365000	130.420000	-4.517900	-15.140000	1
46.330000	130.460000	-4.182300	-15.140000	1
46.295000	130.500000	-3.835000	-15.140000	1
46.260000	130.530000	-4.519400	-15.140000	1
46.224000	130.570000	-2.123300	-15.140000	1
46.189000	130.610000	-4.516600	-15.140000	1
46.154000	130.650000	-4.509600	-15.140000	1
46.118000	130.690000	-4.871500	-15.140000	1
46.083000	130.720000	-4.177900	-15.140000	1
46.047000	130.760000	-4.883700	-15.140000	1
46.012000	130.800000	-5.903100	-15.140000	1
45.977000	130.840000	-5.907200	-15.140000	1
45.941000	130.870000	-4.526900	-15.140000	1
45.906000	130.910000	-4.869900	-15.140000	1
45.443000	131.390000	-5.904900	-15.140000	1
45.408000	131.430000	-5.219000	-15.139000	1
45.372000	131.470000	-4.525300	-15.139000	1
45.336000	131.500000	-3.853000	-15.140000	1
45.300000	131.540000	-3.849800	-15.139000	1
45.265000	131.580000	-2.129800	-15.139000	1
45.229000	131.610000	-2.824100	-15.139000	1
45.193000	131.650000	-4.877500	-15.139000	1
45.158000	131.690000	-5.922700	-15.139000	1
47.169000	129.620000	-6.541500	-14.387000	1
47.134000	129.660000	-8.266600	-14.387000	1
47.099000	129.700000	-7.572900	-14.387000	1
47.064000	129.740000	-6.893200	-14.387000	1
47.029000	129.780000	-6.535800	-14.387000	1
46.994000	129.820000	-7.226700	-14.387000	1
46.959000	129.860000	-6.188900	-14.387000	1
46.924000	129.900000	-5.503000	-14.387000	1
46.889000	129.930000	-4.809500	-14.387000	1
46.853000	129.970000	-4.817500	-14.386000	1
46.818000	130.010000	-3.776300	-14.387000	1
46.783000	130.050000	-4.810800	-14.387000	1
46.748000	130.090000	-6.539600	-14.386000	1
46.713000	130.130000	-6.536200	-14.387000	1
46.678000	130.170000	-5.498700	-14.387000	1
46.643000	130.210000	-7.231400	-14.386000	1
46.608000	130.240000	-5.851200	-14.387000	1
46.572000	130.280000	-5.848100	-14.386000	1
46.537000	130.320000	-7.228800	-14.386000	1
46.502000	130.360000	-6.527500	-14.387000	1
46.467000	130.400000	-6.889900	-14.386000	1
46.431000	130.440000	-4.464200	-14.386000	1
46.396000	130.470000	-4.420300	-14.386000	1
46.361000	130.510000	-4.476600	-14.386000	1
46.325000	130.550000	-5.171100	-14.386000	1
46.290000	130.590000	-5.511700	-14.386000	1
46.255000	130.630000	-5.164500	-14.386000	1
46.219000	130.660000	-4.482300	-14.386000	1
46.184000	130.700000	-3.112600	-14.386000	1
46.149000	130.740000	-4.471500	-14.386000	1
46.113000	130.780000	-4.812100	-14.386000	1
46.078000	130.820000	-5.858000	-14.386000	1
46.042000	130.850000	-7.231200	-14.386000	1
46.007000	130.890000	-7.929600	-14.386000	1
45.971000	130.930000	-6.899600	-14.386000	1
45.936000	130.970000	-6.900000	-14.386000	1
45.900000	131.000000	-5.856500	-14.386000	1
45.865000	131.040000	-3.448600	-14.386000	1
45.829000	131.080000	-5.517100	-14.386000	1
45.794000	131.120000	-4.819800	-14.386000	1
45.758000	131.150000	-4.479800	-14.386000	1
45.723000	131.190000	-4.147700	-14.386000	1
45.687000	131.230000	-5.178400	-14.386000	1
45.652000	131.260000	-6.906900	-14.386000	1
45.616000	131.300000	-6.220800	-14.386000	1
45.580000	131.340000	-6.557400	-14.386000	1
45.545000	131.380000	-6.554000	-14.386000	1
45.509000	131.410000	-7.585000	-14.386000	1
45.473000	131.450000	-5.864400	-14.386000	1
45.438000	131.490000	-4.142800	-14.386000	1
45.402000	131.520000	-4.491100	-14.386000	1
45.366000	131.560000	-2.770900	-14.386000	1
45.330000	131.600000	-2.763400	-14.386000	1
45.295000	131.630000	-3.790100	-14.386000	1
45.259000	131.670000	-3.461900	-14.386000	1
45.223000	131.710000	-4.144900	-14.385000	1
45.187000	131.740000	-7.583800	-14.386000	1
45.152000	131.780000	-7.584400	-14.386000	1
45.116000	131.810000	-6.550500	-14.385000	1
45.080000	131.850000	-6.550800	-14.386000	1
45.044000	131.890000	-7.593100	-14.385000	1
45.008000	131.920000	-6.551500	-14.386000	1
44.972000	131.960000	-4.838800	-14.386000	1
44.936000	132.000000	-7.928700	-14.385000	1
44.901000	132.030000	-6.556000	-14.386000	1
47.200000	129.680000	-8.901900	-13.630000	1
47.165000	129.720000	-8.569800	-13.629000	1
47.130000	129.750000	-8.222400	-13.630000	1
47.095000	129.790000	-5.464100	-13.630000	1
47.060000	129.830000	-7.192900	-13.629000	1
47.025000	129.870000	-6.149000	-13.630000	1
46.989000	129.910000	-7.186200	-13.630000	1
46.954000	129.950000	-4.435700	-13.629000	1
46.919000	129.990000	-4.082300	-13.630000	1
46.884000	130.030000	-3.739000	-13.629000	1
46.849000	130.070000	-4.083400	-13.629000	1
46.814000	130.110000	-4.777700	-13.630000	1
46.779000	130.140000	-4.778300	-13.629000	1
46.744000	130.180000	-3.744300	-13.629000	1
46.708000	130.220000	-3.756300	-13.629000	1
46.673000	130.260000	-5.127100	-13.629000	1
46.638000	130.300000	-5.470000	-13.629000	1
46.603000	130.340000	-6.494800	-13.629000	1
46.568000	130.380000	-6.149100	-13.629000	1
46.532000	130.410000	-5.797900	-13.629000	1
46.497000	130.450000	-5.462200	-13.629000	1
46.462000	130.490000	-6.142900	-13.629000	1
46.426000	130.530000	-5.810900	-13.629000	1
46.391000	130.570000	-5.123700	-13.629000	1
46.356000	130.610000	-4.437300	-13.629000	1
46.320000	130.640000	-4.430200	-13.629000	1
46.285000	130.680000	-4.770800	-13.629000	1
46.250000	130.720000	-5.115100	-13.629000	1
46.214000	130.760000	-4.381500	-13.629000	1
46.179000	130.790000	-5.112300	-13.629000	1
46.143000	130.830000	-4.776400	-13.629000	1
46.108000	130.870000	-4.440600	-13.629000	1
46.073000	130.910000	-5.124900	-13.629000	1
46.037000	130.950000	-5.117700	-13.629000	1
46.002000	130.980000	-6.487100	-13.629000	1
45.966000	131.020000	-6.495100	-13.629000	1
45.931000	131.060000	-6.843000	-13.629000	1
45.895000	131.100000	-5.813000	-13.629000	1
45.860000	131.130000	-4.787100	-13.629000	1
45.824000	131.170000	-4.447400	-13.629000	1
45.788000	131.210000	-3.417600	-13.629000	1
45.753000	131.240000	-3.421900	-13.629000	1
45.717000	131.280000	-3.407100	-13.629000	1
45.682000	131.320000	-6.834600	-13.629000	1
45.646000	131.360000	-6.842600	-13.629000	1
45.610000	131.390000	-5.126000	-13.629000	1
45.575000	131.430000	-6.506900	-13.629000	1
45.539000	131.470000	-7.185600	-13.629000	1
45.503000	131.500000	-7.197200	-13.629000	1
45.467000	131.540000	-4.089100	-13.629000	1
45.432000	131.580000	-3.059300	-13.629000	1
45.396000	131.610000	-3.413500	-13.629000	1
45.360000	131.650000	-3.060100	-13.628000	1
45.324000	131.690000	-2.377900	-13.629000	1
45.289000	131.720000	-4.087200	-13.629000	1
45.253000	131.760000	-3.061400	-13.628000	1
45.217000	131.800000	-5.118300	-13.629000	1
45.181000	131.830000	-5.820300	-13.629000	1
45.145000	131.870000	-6.145100	-13.628000	1
45.110000	131.910000	-4.442500	-13.629000	1
45.074000	131.940000	-5.809500	-13.628000	1
45.038000	131.980000	-6.496300	-13.628000	1
45.002000	132.010000	-3.761000	-13.629000	1
44.966000	132.050000	-4.094000	-13.628000	1
47.230000	129.730000	-7.390900	-12.871000	1
47.195000	129.770000	-8.068000	-12.871000	1
47.160000	129.810000	-7.731900	-12.871000	1
47.125000	129.850000	-6.352000	-12.871000	1
47.090000	129.890000	-8.073100	-12.871000	1
47.055000	129.930000	-7.378000	-12.871000	1
47.020000	129.970000	-5.657800	-12.871000	1
46.985000	130.010000	-6.002300	-12.871000	1
46.950000	130.040000	-5.300900	-12.871000	1
46.915000	130.080000	-4.282600	-12.870000	1
46.880000	130.120000	-3.591500	-12.870000	1
46.844000	130.160000	-3.257000	-12.871000	1
46.809000	130.200000	-5.314200	-12.870000	1
46.774000	130.240000	-3.944300	-12.870000	1
46.739000	130.280000	-1.538300	-12.870000	1
46.704000	130.320000	-4.281700	-12.870000	1
46.668000	130.350000	-3.255700	-12.871000	1
46.633000	130.390000	-4.636700	-12.870000	1
46.598000	130.430000	-5.324900	-12.870000	1
46.563000	130.470000	-5.321100	-12.870000	1
46.527000	130.510000	-5.671800	-12.870000	1
46.492000	130.550000	-5.672200	-12.870000	1
46.457000	130.580000	-6.012800	-12.870000	1
46.421000	130.620000	-3.255200	-12.870000	1
46.386000	130.660000	-4.635800	-12.870000	1
46.351000	130.700000	-4.643900	-12.870000	1
46.315000	130.740000	-3.946700	-12.870000	1
46.280000	130.770000	-4.977300	-12.870000	1
46.244000	130.810000	-4.649200	-12.870000	1
46.209000	130.850000	-5.333600	-12.870000	1
46.174000	130.890000	-6.703000	-12.870000	1
46.138000	130.930000	-7.043300	-12.870000	1
46.103000	130.960000	-7.741400	-12.870000	1
46.067000	131.000000	-6.353700	-12.870000	1
46.032000	131.040000	-7.052000	-12.870000	1
45.996000	131.080000	-7.394800	-12.870000	1
45.961000	131.110000	-7.403000	-12.870000	1
45.925000	131.150000	-5.682700	-12.870000	1
45.889000	131.190000	-6.027100	-12.870000	1
45.854000	131.220000	-3.951900	-12.870000	1
45.818000	131.260000	-3.616000	-12.870000	1
45.783000	131.300000	-2.934000	-12.870000	1
47.261000	129.790000	-7.747200	-12.111000	1
47.226000	129.830000	-7.057500	-12.111000	1
47.191000	129.870000	-6.367400	-12.111000	1
47.156000	129.900000	-9.119100	-12.111000	1
47.121000	129.940000	-5.666800	-12.111000	1
47.086000	129.980000	-4.983300	-12.111000	1
47.051000	130.020000	-5.663800	-12.111000	1
47.015000	130.060000	-5.320500	-12.111000	1
46.980000	130.100000	-4.290600	-12.111000	1
46.945000	130.140000	-3.264900	-12.111000	1
46.910000	130.180000	-3.605300	-12.111000	1
46.875000	130.220000	-3.273200	-12.111000	1
46.840000	130.250000	-4.994200	-12.111000	1
46.804000	130.290000	-2.916600	-12.111000	1
46.769000	130.330000	-4.645000	-12.111000	1
46.734000	130.370000	-4.297500	-12.110000	1
46.699000	130.410000	-4.980500	-12.111000	1
46.663000	130.450000	-3.276000	-12.110000	1
46.628000	130.490000	-5.677100	-12.110000	1
46.593000	130.520000	-6.363800	-12.111000	1
46.557000	130.560000	-6.704600	-12.110000	1
46.522000	130.600000	-6.024700	-12.111000	1
46.487000	130.640000	-3.968500	-12.111000	1
46.451000	130.680000	-3.961400	-12.110000	1
46.416000	130.710000	-3.271700	-12.111000	1
46.381000	130.750000	-5.000200	-12.111000	1
