La	Lo	Sig	Theta	Ice
48.791000	132.950000	-3.609600	-10.597000	1
48.755000	132.990000	-6.349100	-10.598000	1
48.720000	133.030000	-5.669100	-10.598000	1
48.684000	133.070000	-4.639100	-10.597000	1
48.649000	133.110000	-4.979400	-10.598000	1
48.614000	133.150000	-1.206800	-10.597000	1
48.578000	133.190000	-1.210800	-10.597000	1
48.543000	133.230000	-4.651600	-10.597000	1
48.507000	133.270000	-3.604000	-10.597000	1
48.472000	133.310000	-2.234700	-10.597000	1
48.436000	133.350000	-4.299000	-10.597000	1
48.401000	133.390000	-4.985400	-10.597000	1
48.365000	133.430000	-3.269200	-10.597000	1
48.330000	133.470000	-2.575400	-10.597000	1
48.294000	133.500000	-3.598300	-10.597000	1
48.259000	133.540000	-3.266100	-10.597000	1
48.223000	133.580000	-5.326500	-10.597000	1
48.188000	133.620000	3.267600	-10.597000	1
48.152000	133.660000	0.517420	-10.597000	1
48.116000	133.700000	-8.424700	-10.597000	1
48.081000	133.740000	-7.052000	-10.597000	1
47.930000	133.470000	-6.540000	-6.821300	1
47.894000	133.510000	-7.224300	-6.821100	1
47.859000	133.550000	-5.500400	-6.821300	1
47.823000	133.590000	-5.160700	-6.821100	1
47.788000	133.620000	-2.078000	-6.821200	1
47.752000	133.660000	-3.108300	-6.821300	1
47.716000	133.700000	-1.037600	-6.821200	1
47.681000	133.740000	-5.502000	-6.821200	1
47.645000	133.780000	-5.162400	-6.820800	1
47.609000	133.820000	-5.502400	-6.821300	1
47.574000	133.850000	-5.856700	-6.820900	1
47.538000	133.890000	-5.503000	-6.820900	1
47.502000	133.930000	-6.543200	-6.821400	1
47.467000	133.970000	-4.823500	-6.820700	1
47.431000	134.010000	-4.133400	-6.821200	1
47.395000	134.050000	-5.167700	-6.820800	1
47.359000	134.080000	-5.858100	-6.820900	1
47.324000	134.120000	0.332300	-6.821100	1
47.288000	134.160000	5.145500	-6.820900	1
47.252000	134.200000	-2.426200	-6.820900	1
47.216000	134.240000	-0.702550	-6.821000	1
47.180000	134.270000	-3.795500	-6.821100	1
47.144000	134.310000	2.054600	-6.821000	1
47.108000	134.350000	-2.415800	-6.821100	1
47.073000	134.390000	-4.139900	-6.821000	1
47.037000	134.420000	-7.230500	-6.821200	1
47.865000	133.450000	-5.961000	-6.066800	1
47.829000	133.490000	-5.621100	-6.067000	1
47.794000	133.530000	-4.591400	-6.066700	1
47.758000	133.570000	-3.901400	-6.066900	1
47.722000	133.610000	-3.898300	-6.066900	1
47.687000	133.650000	-4.248600	-6.066900	1
47.651000	133.690000	-5.622700	-6.066900	1
47.615000	133.720000	-5.619400	-6.066500	1
47.580000	133.760000	-6.999500	-6.067000	1
47.544000	133.800000	-7.000100	-6.066500	1
47.508000	133.840000	-5.283700	-6.066600	1
47.473000	133.880000	-6.313800	-6.067000	1
47.437000	133.920000	-8.038500	-6.066300	1
47.401000	133.950000	-5.964400	-6.066900	1
48.371000	132.720000	-3.520300	-4.557900	1
48.336000	132.760000	-2.840600	-4.557800	1
48.301000	132.800000	-3.520900	-4.557700	1
48.266000	132.840000	-1.801000	-4.557800	1
48.230000	132.880000	-0.424980	-4.557400	1
48.195000	132.920000	-4.205100	-4.557800	1
48.160000	132.960000	-4.895500	-4.557500	1
48.124000	133.000000	-2.835500	-4.557600	1
48.089000	133.040000	6.778200	-4.557800	1
48.053000	133.070000	4.717500	-4.557400	1
48.018000	133.110000	-10.401000	-4.557700	1
47.983000	133.150000	-2.836900	-4.557300	1
47.947000	133.190000	-3.863400	-4.557600	1
47.912000	133.230000	-5.583800	-4.557700	1
47.876000	133.270000	-5.244200	-4.557300	1
47.841000	133.310000	-6.277900	-4.557800	1
47.805000	133.350000	-4.898200	-4.557500	1
47.770000	133.390000	-1.808000	-4.557800	1
47.734000	133.430000	-2.838600	-4.557400	1
47.699000	133.460000	-4.558700	-4.557700	1
47.663000	133.500000	-3.865600	-4.557600	1
47.628000	133.540000	-3.175700	-4.557700	1
47.592000	133.580000	-4.556000	-4.557600	1
47.556000	133.620000	-4.896600	-4.557200	1
47.521000	133.660000	-6.616600	-4.557800	1
47.485000	133.700000	-6.620800	-4.557200	1
47.449000	133.730000	-5.587300	-4.557400	1
47.414000	133.770000	-6.280900	-4.557800	1
47.378000	133.810000	-6.961700	-4.557100	1
47.342000	133.850000	-0.777500	-4.557700	1
47.307000	133.890000	-4.558300	-4.557200	1
47.271000	133.930000	1.968300	-4.557400	1
47.235000	133.960000	-4.205200	-4.557500	1
47.200000	134.000000	-3.869000	-4.557400	1
47.164000	134.040000	-2.499200	-4.557400	1
47.128000	134.080000	-3.179400	-4.557500	1
47.092000	134.110000	0.940570	-4.557600	1
47.056000	134.150000	1.626800	-4.557500	1
47.021000	134.190000	-4.563700	-4.557500	1
46.985000	134.230000	-4.904100	-4.557500	1
46.949000	134.270000	-3.874000	-4.557700	1
48.833000	132.100000	-7.914400	-3.802300	1
48.798000	132.140000	-3.784300	-3.802300	1
48.763000	132.180000	-4.818100	-3.802400	1
48.728000	132.220000	-3.788400	-3.802300	1
48.693000	132.260000	-1.035100	-3.802200	1
48.658000	132.310000	-1.725300	-3.802400	1
48.623000	132.350000	-2.075700	-3.802300	1
48.588000	132.390000	-6.536300	-3.802300	1
48.553000	132.430000	-5.859800	-3.802400	1
48.517000	132.470000	-3.446600	-3.802200	1
48.482000	132.510000	-5.510400	-3.802200	1
48.447000	132.550000	-5.503800	-3.802500	1
48.412000	132.590000	-3.784200	-3.802100	1
48.377000	132.630000	-5.164400	-3.802300	1
48.341000	132.670000	-2.074400	-3.802400	1
48.306000	132.710000	-9.979200	-3.802300	1
48.271000	132.750000	-3.445100	-3.802300	1
48.236000	132.790000	-1.035200	-3.802300	1
48.200000	132.820000	-4.139300	-3.801900	1
48.165000	132.860000	-2.419000	-3.802400	1
48.130000	132.900000	-4.139600	-3.802000	1
48.094000	132.940000	-2.419600	-3.802100	1
48.059000	132.980000	4.110500	-3.802300	1
48.024000	133.020000	8.240100	-3.802000	1
47.988000	133.060000	-7.227200	-3.802300	1
47.953000	133.100000	-5.857700	-3.801900	1
47.917000	133.140000	-5.167600	-3.802200	1
47.882000	133.180000	-4.477700	-3.802300	1
47.847000	133.220000	-3.111700	-3.801900	1
47.811000	133.260000	-4.821800	-3.802300	1
47.776000	133.300000	-3.452100	-3.802100	1
47.740000	133.330000	-3.792200	-3.802300	1
47.705000	133.370000	-3.112600	-3.801900	1
47.669000	133.410000	-3.792600	-3.802300	1
47.634000	133.450000	-3.452900	-3.802100	1
47.598000	133.490000	-2.419600	-3.802300	1
47.563000	133.530000	-2.419900	-3.802200	1
47.527000	133.570000	-4.480500	-3.801800	1
47.491000	133.600000	-5.170400	-3.802400	1
47.456000	133.640000	-5.171100	-3.801800	1
47.420000	133.680000	-3.791100	-3.802000	1
47.384000	133.720000	-4.484600	-3.802300	1
47.349000	133.760000	-0.705120	-3.801800	1
47.313000	133.800000	-0.365010	-3.802200	1
47.277000	133.830000	0.324440	-3.801800	1
47.242000	133.870000	2.047800	-3.802000	1
47.206000	133.910000	-3.116000	-3.802000	1
47.170000	133.950000	-3.112900	-3.802100	1
47.135000	133.990000	-3.793200	-3.801900	1
47.099000	134.020000	-5.516900	-3.802100	1
47.063000	134.060000	-1.393400	-3.802100	1
47.027000	134.100000	7.546500	-3.802100	1
46.991000	134.140000	-2.767400	-3.802100	1
46.956000	134.180000	-5.867900	-3.802000	1
46.920000	134.210000	-4.147900	-3.802300	1
46.884000	134.250000	-1.738000	-3.802300	1
46.848000	134.290000	-4.492000	-3.802000	1
46.812000	134.330000	-4.832200	-3.802200	1
46.776000	134.360000	-3.462500	-3.801900	1
46.740000	134.400000	-4.825700	-3.802200	1
46.704000	134.440000	-7.579900	-3.801900	1
46.669000	134.470000	-4.149700	-3.802000	1
46.633000	134.510000	-1.049700	-3.802100	1
46.597000	134.550000	1.699900	-3.801900	1
46.561000	134.590000	-0.016770	-3.802000	1
46.525000	134.620000	-4.487200	-3.802000	1
46.489000	134.660000	-6.901300	-3.801800	1
46.453000	134.700000	-5.521200	-3.802100	1
46.417000	134.730000	-4.835000	-3.802000	1
46.381000	134.770000	-6.215400	-3.801900	1
46.344000	134.810000	-6.555600	-3.802100	1
46.308000	134.840000	-6.212200	-3.802100	1
46.272000	134.880000	-6.212600	-3.801900	1
46.236000	134.920000	-7.939900	-3.802000	1
46.200000	134.950000	-7.930300	-3.801800	1
46.164000	134.990000	-6.556700	-3.802000	1
46.128000	135.030000	-5.876900	-3.802000	1
46.092000	135.060000	-5.527200	-3.801800	1
46.055000	135.100000	-7.927800	-3.801800	1
46.019000	135.140000	-6.901400	-3.801800	1
45.983000	135.170000	1.692200	-3.801600	1
45.947000	135.210000	-7.932100	-3.801700	1
45.911000	135.240000	-2.098400	-3.801700	1
45.874000	135.280000	-2.098600	-3.801700	1
45.838000	135.320000	-6.212600	-3.801800	1
45.802000	135.350000	-8.626900	-3.801600	1
45.766000	135.390000	2.030600	-3.801800	1
45.729000	135.420000	-9.661100	-3.801800	1
45.693000	135.460000	-7.577100	-3.801700	1
45.657000	135.500000	-0.720310	-3.801800	1
45.620000	135.530000	-9.308600	-3.801600	1
48.663000	132.210000	-1.290000	-3.046500	1
48.628000	132.250000	-3.010200	-3.046600	1
48.593000	132.290000	-3.700600	-3.046500	1
48.558000	132.330000	-4.380900	-3.046500	1
48.522000	132.370000	-3.701000	-3.046600	1
48.487000	132.410000	0.078689	-3.046500	1
48.452000	132.450000	-5.411800	-3.046500	1
48.417000	132.490000	-3.705100	-3.046700	1
48.382000	132.530000	-2.669100	-3.046300	1
48.347000	132.570000	-4.382600	-3.046500	1
48.312000	132.610000	-3.012700	-3.046600	1
48.276000	132.650000	-9.877200	-3.046500	1
48.241000	132.690000	-1.983200	-3.046500	1
48.206000	132.730000	-1.293400	-3.046500	1
48.171000	132.770000	-3.694000	-3.046200	1
48.135000	132.810000	-3.343900	-3.046600	1
48.100000	132.850000	-3.344300	-3.046300	1
48.065000	132.890000	-4.031100	-3.046400	1
48.029000	132.930000	12.796000	-3.046500	1
47.994000	132.970000	6.268600	-3.046200	1
47.959000	133.010000	-7.475200	-3.046500	1
47.923000	133.050000	-0.595470	-3.046100	1
47.888000	133.090000	-3.692200	-3.046400	1
47.852000	133.130000	-4.372500	-3.046500	1
47.817000	133.160000	-4.376400	-3.046200	1
47.782000	133.200000	-0.942900	-3.046500	1
47.746000	133.240000	-1.976600	-3.046300	1
47.711000	133.280000	-1.626700	-3.046600	1
47.675000	133.320000	-1.627200	-3.046200	1
47.640000	133.360000	-2.667200	-3.046600	1
47.604000	133.400000	-2.667500	-3.046300	1
47.569000	133.440000	-2.667600	-3.046600	1
47.533000	133.480000	-2.314500	-3.046400	1
47.497000	133.510000	-1.285000	-3.046100	1
47.462000	133.550000	-3.004900	-3.046600	1
47.426000	133.590000	-4.725700	-3.046000	1
47.391000	133.630000	-4.035700	-3.046300	1
47.355000	133.670000	-3.009000	-3.046500	1
47.319000	133.710000	-3.346300	-3.046100	1
47.284000	133.740000	-0.949520	-3.046500	1
47.248000	133.780000	5.240000	-3.046100	1
47.212000	133.820000	-3.010300	-3.046200	1
47.177000	133.860000	-2.320400	-3.046300	1
47.141000	133.900000	-1.980600	-3.046300	1
47.105000	133.930000	-0.950950	-3.046200	1
47.070000	133.970000	-3.007700	-3.046400	1
47.034000	134.010000	-0.947920	-3.046400	1
46.998000	134.050000	5.932000	-3.046400	1
46.962000	134.090000	4.898300	-3.046400	1
46.926000	134.120000	-3.352100	-3.046300	1
46.891000	134.160000	-4.042200	-3.046500	1
46.855000	134.200000	-1.982300	-3.046600	1
46.819000	134.240000	1.457300	-3.046300	1
46.783000	134.270000	2.147200	-3.046400	1
46.747000	134.310000	0.076733	-3.046200	1
46.711000	134.350000	-1.633300	-3.046500	1
46.675000	134.390000	-1.630300	-3.046200	1
46.640000	134.420000	4.896300	-3.046300	1
46.604000	134.460000	6.956200	-3.046400	1
46.568000	134.500000	4.205800	-3.046200	1
46.532000	134.530000	1.115600	-3.046300	1
46.496000	134.570000	0.075298	-3.046300	1
46.460000	134.610000	-5.415300	-3.046100	1
48.738000	132.040000	1.260900	-2.295300	1
48.703000	132.080000	0.580660	-2.295400	1
48.668000	132.120000	-3.549900	-2.295300	1
48.633000	132.160000	-1.830100	-2.295300	1
48.598000	132.200000	0.919780	-2.295400	1
48.563000	132.240000	0.229410	-2.295300	1
48.528000	132.280000	-2.170900	-2.295300	1
48.493000	132.320000	-5.271200	-2.295500	1
48.458000	132.360000	-3.211500	-2.295300	1
48.422000	132.400000	-2.521800	-2.295300	1
48.387000	132.440000	4.358300	-2.295500	1
48.352000	132.480000	2.287700	-2.295100	1
48.317000	132.520000	-1.832500	-2.295300	1
48.282000	132.560000	-3.892700	-2.295500	1
48.247000	132.600000	-6.643200	-2.295300	1
48.211000	132.640000	-11.120000	-2.295400	1
48.176000	132.680000	-0.803360	-2.295400	1
48.141000	132.720000	0.919370	-2.295000	1
48.106000	132.760000	2.286400	-2.295400	1
48.070000	132.800000	-0.461000	-2.295100	1
48.035000	132.840000	-0.114200	-2.295200	1
48.000000	132.880000	12.946000	-2.295300	1
47.964000	132.920000	-4.584900	-2.295100	1
47.929000	132.960000	-10.086000	-2.295400	1
47.894000	133.000000	-2.865400	-2.294900	1
47.858000	133.030000	-1.832100	-2.295300	1
47.823000	133.070000	-1.492300	-2.295300	1
47.788000	133.110000	-1.492800	-2.295100	1
47.752000	133.150000	-1.142900	-2.295300	1
47.717000	133.190000	0.226850	-2.295200	1
47.681000	133.230000	0.916790	-2.295400	1
47.646000	133.270000	-2.523800	-2.295000	1
47.610000	133.310000	-1.496900	-2.295400	1
47.575000	133.350000	-2.867300	-2.295100	1
47.539000	133.380000	-2.527300	-2.295400	1
47.504000	133.420000	-1.837600	-2.295200	1
47.468000	133.460000	-1.148000	-2.294900	1
47.433000	133.500000	-2.524600	-2.295500	1
47.397000	133.540000	-2.525300	-2.294800	1
47.361000	133.580000	-2.525300	-2.295100	1
47.326000	133.620000	-2.175400	-2.295300	1
47.290000	133.650000	-2.866000	-2.295000	1
47.255000	133.690000	3.664200	-2.295300	1
47.219000	133.730000	2.973700	-2.295000	1
47.183000	133.770000	-2.529800	-2.295100	1
47.148000	133.810000	-3.220000	-2.295100	1
47.112000	133.840000	-3.560200	-2.295200	1
47.076000	133.880000	-4.930700	-2.295000	1
47.041000	133.920000	-2.870600	-2.295300	1
47.005000	133.960000	-1.147500	-2.295200	1
46.969000	134.000000	-0.117650	-2.295300	1
46.933000	134.030000	4.002100	-2.295200	1
46.897000	134.070000	-0.471420	-2.295200	1
46.862000	134.110000	-4.588400	-2.295400	1
46.826000	134.150000	3.311500	-2.295400	1
46.790000	134.180000	1.598000	-2.295200	1
46.754000	134.220000	-2.182300	-2.295300	1
46.718000	134.260000	-5.282800	-2.295000	1
46.682000	134.300000	-5.966000	-2.295300	1
46.647000	134.330000	0.566930	-2.295100	1
46.611000	134.370000	9.156800	-2.295200	1
46.575000	134.410000	8.810100	-2.295300	1
46.539000	134.440000	6.749700	-2.295100	1
46.503000	134.480000	1.599600	-2.295200	1
46.467000	134.520000	-3.220800	-2.295200	1
46.431000	134.560000	-3.904400	-2.295000	1
46.395000	134.590000	-3.904400	-2.295300	1
48.743000	131.940000	-4.900100	-1.540600	1
48.708000	131.980000	-2.153300	-1.540600	1
48.673000	132.030000	0.259480	-1.540700	1
48.638000	132.070000	3.012400	-1.540600	1
48.603000	132.110000	5.069200	-1.540600	1
48.568000	132.150000	5.409000	-1.540700	1
48.533000	132.190000	6.448600	-1.540600	1
48.498000	132.230000	1.628300	-1.540600	1
48.463000	132.270000	-2.491900	-1.540800	1
48.428000	132.310000	-2.492300	-1.540500	1
48.393000	132.350000	1.287500	-1.540600	1
48.357000	132.390000	5.067400	-1.540800	1
47.970000	132.820000	12.628000	-1.540600	1
47.935000	132.860000	6.444700	-1.540400	1
47.899000	132.900000	-6.265700	-1.540700	1
47.864000	132.940000	5.404100	-1.540200	1
47.829000	132.980000	2.314100	-1.540600	1
47.793000	133.020000	1.627100	-1.540600	1
47.758000	133.060000	-0.083326	-1.540400	1
47.723000	133.100000	0.946520	-1.540500	1
47.687000	133.140000	1.286300	-1.540500	1
47.652000	133.180000	1.976200	-1.540700	1
47.616000	133.220000	-0.087307	-1.540300	1
47.581000	133.250000	1.622800	-1.540700	1
47.545000	133.290000	-1.117700	-1.540400	1
47.510000	133.330000	-1.117600	-1.540800	1
47.474000	133.370000	-0.767980	-1.540500	1
47.439000	133.410000	0.601650	-1.540300	1
47.403000	133.450000	-0.078245	-1.540800	1
47.368000	133.490000	-0.078889	-1.540100	1
47.332000	133.520000	-0.425590	-1.540500	1
47.297000	133.560000	-0.425760	-1.540600	1
47.261000	133.600000	2.320900	-1.540300	1
47.225000	133.640000	8.153800	-1.540500	1
47.190000	133.680000	-1.456700	-1.540300	1
47.154000	133.720000	-0.769820	-1.540400	1
47.118000	133.750000	-3.870100	-1.540400	1
47.083000	133.790000	-6.270400	-1.540600	1
47.047000	133.830000	-4.900800	-1.540300	1
47.011000	133.870000	-2.830700	-1.540600	1
46.976000	133.910000	-4.211100	-1.540500	1
46.940000	133.940000	-0.431160	-1.540700	1
46.904000	133.980000	0.601870	-1.540500	1
46.868000	134.020000	5.761600	-1.540500	1
46.833000	134.060000	6.791600	-1.540700	1
46.797000	134.090000	5.761300	-1.540700	1
46.761000	134.130000	2.318000	-1.540600	1
46.725000	134.170000	-3.872300	-1.540600	1
46.689000	134.210000	-7.653000	-1.540400	1
46.654000	134.240000	-7.655900	-1.540700	1
46.618000	134.280000	-1.803100	-1.540400	1
46.582000	134.320000	5.066900	-1.540500	1
46.546000	134.360000	6.096700	-1.540600	1
46.510000	134.390000	4.379800	-1.540400	1
46.474000	134.430000	4.039600	-1.540500	1
46.438000	134.470000	-0.430670	-1.540500	1
46.402000	134.500000	-0.771060	-1.540400	1
46.366000	134.540000	-2.154100	-1.540600	1
46.330000	134.580000	-2.154400	-1.540500	1
48.678000	131.930000	3.697600	-0.792230	1
48.643000	131.970000	-0.082704	-0.792330	1
48.608000	132.010000	4.037000	-0.792240	1
48.573000	132.050000	6.786700	-0.792190	1
48.538000	132.090000	8.506500	-0.792330	1
48.503000	132.130000	6.789400	-0.792260	1
48.468000	132.170000	-0.080930	-0.792260	1
48.433000	132.210000	-0.423870	-0.792430	1
48.398000	132.250000	2.315800	-0.792180	1
48.363000	132.300000	4.385500	-0.792200	1
48.328000	132.340000	10.915000	-0.792480	1
48.293000	132.380000	5.414900	-0.792090	1
48.257000	132.420000	3.694700	-0.792190	1
48.222000	132.460000	-1.468300	-0.792400	1
48.187000	132.490000	-2.838700	-0.792220	1
48.152000	132.530000	-0.428790	-0.792320	1
48.117000	132.570000	5.061000	-0.792280	1
48.082000	132.610000	1.286700	-0.791950	1
48.046000	132.650000	3.356600	-0.792340	1
48.011000	132.690000	5.756300	-0.791970	1
47.976000	132.730000	11.596000	-0.792200	1
47.941000	132.770000	10.916000	-0.792170	1
47.905000	132.810000	10.226000	-0.792040	1
47.870000	132.850000	10.913000	-0.792270	1
47.835000	132.890000	5.752400	-0.791880	1
47.799000	132.930000	6.442300	-0.792250	1
47.764000	132.970000	5.062000	-0.792200	1
47.729000	133.010000	5.751700	-0.792090	1
47.693000	133.050000	6.101500	-0.792140	1
47.658000	133.090000	5.754500	-0.792180	1
47.622000	133.120000	6.104400	-0.792350	1
47.587000	133.160000	7.134000	-0.791930	1
47.552000	133.200000	5.064000	-0.792380	1
47.516000	133.240000	3.693600	-0.792020	1
47.481000	133.280000	3.003600	-0.792440	1
47.445000	133.320000	5.060500	-0.792170	1
47.410000	133.360000	5.060200	-0.791920	1
47.374000	133.400000	6.440200	-0.792400	1
47.339000	133.430000	7.809700	-0.791790	1
47.303000	133.470000	4.379600	-0.792120	1
47.267000	133.510000	8.499400	-0.792190	1
47.232000	133.550000	14.339000	-0.792020	1
47.196000	133.590000	8.842200	-0.792150	1
47.161000	133.630000	-0.428140	-0.792010	1
47.125000	133.660000	-2.841100	-0.792080	1
47.089000	133.700000	1.278700	-0.792100	1
47.054000	133.740000	-4.221600	-0.792280	1
47.018000	133.780000	-5.254700	-0.791960	1
46.982000	133.820000	-0.431980	-0.792290	1
46.947000	133.850000	-6.965300	-0.792200	1
46.911000	133.890000	-3.185300	-0.792340	1
46.875000	133.930000	1.627200	-0.792230	1
46.840000	133.970000	10.907000	-0.792160	1
46.804000	134.000000	15.027000	-0.792420	1
46.768000	134.040000	14.340000	-0.792410	1
46.732000	134.080000	2.659600	-0.792310	1
46.696000	134.120000	-6.283600	-0.792290	1
46.661000	134.150000	-10.760000	-0.792100	1
46.625000	134.190000	-2.843800	-0.792350	1
46.589000	134.230000	2.655900	-0.792120	1
46.553000	134.270000	5.055700	-0.792170	1
46.517000	134.300000	1.625500	-0.792280	1
46.481000	134.340000	11.585000	-0.792130	1
46.445000	134.380000	3.685000	-0.792180	1
46.409000	134.410000	6.774800	-0.792250	1
46.374000	134.450000	1.277900	-0.792050	1
46.338000	134.490000	1.627800	-0.792310	1
46.302000	134.530000	-0.095262	-0.792220	1
46.266000	134.560000	-1.475600	-0.792140	1
46.230000	134.600000	-2.158500	-0.792270	1
46.194000	134.640000	-1.476000	-0.792290	1
46.158000	134.670000	1.963800	-0.792130	1
46.122000	134.710000	2.303600	-0.792210	1
46.086000	134.750000	3.683300	-0.792030	1
46.050000	134.780000	-0.099654	-0.792200	1
46.013000	134.820000	0.930150	-0.792240	1
45.977000	134.860000	5.739900	-0.792090	1
45.941000	134.890000	7.463200	-0.792010	1
45.905000	134.930000	12.273000	-0.792060	1
45.869000	134.960000	10.903000	-0.791860	1
45.833000	135.000000	0.929610	-0.791940	1
45.797000	135.040000	-3.883500	-0.791910	1
45.761000	135.070000	-1.131000	-0.791970	1
45.724000	135.110000	-0.793980	-0.792010	1
48.473000	132.080000	3.196800	0.118000	1
