La	Lo	Sig	Theta	Ice
63.016000	129.770000	-9.633200	-18.180000	1
63.037000	129.850000	-10.327000	-18.181000	1
63.058000	129.940000	-8.938400	-18.180000	1
63.079000	130.030000	-9.292100	-18.181000	1
63.099000	130.110000	-8.604900	-18.180000	1
63.120000	130.200000	-9.291700	-18.181000	1
63.140000	130.280000	-8.601400	-18.181000	1
63.161000	130.370000	-9.292000	-18.181000	1
63.181000	130.460000	-7.910900	-18.181000	1
63.201000	130.540000	-8.934000	-18.181000	1
63.222000	130.630000	-9.628100	-18.181000	1
63.242000	130.720000	-8.251000	-18.180000	1
63.262000	130.800000	-6.189200	-18.181000	1
63.282000	130.890000	-5.842800	-18.180000	1
63.302000	130.980000	-6.540200	-18.182000	1
63.322000	131.060000	-7.212400	-18.181000	1
63.342000	131.150000	-7.563200	-18.181000	1
63.362000	131.240000	-5.498800	-18.180000	1
63.382000	131.320000	-5.148100	-18.182000	1
63.402000	131.410000	-7.559800	-18.180000	1
63.421000	131.500000	-7.204200	-18.182000	1
63.441000	131.590000	-8.249900	-18.181000	1
63.461000	131.680000	-8.253200	-18.181000	1
63.480000	131.760000	-7.562900	-18.181000	1
63.500000	131.850000	-7.215900	-18.182000	1
63.519000	131.940000	-7.208400	-18.181000	1
63.539000	132.030000	-6.523500	-18.181000	1
63.558000	132.120000	-7.207400	-18.181000	1
63.577000	132.210000	-8.248000	-18.181000	1
63.596000	132.300000	-8.595700	-18.182000	1
63.615000	132.380000	-8.606300	-18.181000	1
63.635000	132.470000	-7.904300	-18.181000	1
63.654000	132.560000	-7.896900	-18.181000	1
63.673000	132.650000	-8.587000	-18.181000	1
63.691000	132.740000	-8.597800	-18.181000	1
63.710000	132.830000	-7.212500	-18.182000	1
63.729000	132.920000	-8.593200	-18.181000	1
63.748000	133.010000	-6.531200	-18.181000	1
63.766000	133.100000	-5.859100	-18.181000	1
63.785000	133.190000	-6.187400	-18.182000	1
63.804000	133.280000	-6.190500	-18.182000	1
63.822000	133.370000	-7.563700	-18.181000	1
63.841000	133.460000	-6.532400	-18.181000	1
63.859000	133.550000	-6.546900	-18.182000	1
63.877000	133.640000	-6.199900	-18.182000	1
63.896000	133.730000	-5.844500	-18.182000	1
63.914000	133.830000	-6.534500	-18.181000	1
63.932000	133.920000	-4.123100	-18.181000	1
63.950000	134.010000	-6.544900	-18.181000	1
63.968000	134.100000	-4.483900	-18.182000	1
63.986000	134.190000	-6.547200	-18.182000	1
64.004000	134.280000	-6.913300	-18.181000	1
64.022000	134.370000	-7.928700	-18.182000	1
64.039000	134.470000	-7.223100	-18.181000	1
64.057000	134.560000	-7.580300	-18.182000	1
64.075000	134.650000	-8.622200	-18.182000	1
64.092000	134.740000	-8.266800	-18.182000	1
64.110000	134.830000	-7.942300	-18.181000	1
64.127000	134.930000	-8.625300	-18.182000	1
64.145000	135.020000	-7.590700	-18.182000	1
64.162000	135.110000	-6.552500	-18.182000	1
64.179000	135.200000	-5.854800	-18.182000	1
64.197000	135.300000	-6.537300	-18.182000	1
64.214000	135.390000	-6.197900	-18.182000	1
64.231000	135.480000	-6.902900	-18.182000	1
64.248000	135.580000	-6.182600	-18.182000	1
64.265000	135.670000	-8.586800	-18.182000	1
64.282000	135.760000	-5.494300	-18.182000	1
64.299000	135.860000	-6.879800	-18.182000	1
64.315000	135.950000	-7.905700	-18.183000	1
65.995000	150.180000	-6.828600	-18.182000	1
66.002000	150.290000	-5.099900	-18.183000	1
66.008000	150.390000	-6.149100	-18.183000	1
66.015000	150.500000	-5.100000	-18.183000	1
66.021000	150.610000	-5.103700	-18.183000	1
66.028000	150.710000	-5.103700	-18.183000	1
66.034000	150.820000	-4.413500	-18.183000	1
66.040000	150.930000	-5.096200	-18.183000	1
66.046000	151.030000	-5.801200	-18.183000	1
66.053000	151.140000	-5.457600	-18.183000	1
66.059000	151.250000	-6.126700	-18.184000	1
66.064000	151.360000	-5.457500	-18.183000	1
66.070000	151.460000	-5.790400	-18.183000	1
66.076000	151.570000	-5.801300	-18.184000	1
66.082000	151.680000	-4.417200	-18.183000	1
66.087000	151.790000	-5.465000	-18.183000	1
66.093000	151.890000	-5.111200	-18.183000	1
66.098000	152.000000	-5.790300	-18.183000	1
66.104000	152.110000	-6.138000	-18.184000	1
66.109000	152.220000	-6.824600	-18.184000	1
62.972000	129.820000	-9.904500	-17.423000	1
62.993000	129.910000	-9.557000	-17.423000	1
63.014000	129.990000	-8.862700	-17.422000	1
63.034000	130.080000	-9.912200	-17.423000	1
63.055000	130.170000	-9.210400	-17.423000	1
63.075000	130.250000	-8.537100	-17.423000	1
63.096000	130.340000	-8.877800	-17.423000	1
63.116000	130.420000	-8.873900	-17.423000	1
63.137000	130.510000	-9.560800	-17.423000	1
63.157000	130.600000	-9.221000	-17.423000	1
63.177000	130.680000	-8.533100	-17.424000	1
63.197000	130.770000	-9.221300	-17.423000	1
63.217000	130.860000	-7.137000	-17.423000	1
63.237000	130.940000	-4.053200	-17.423000	1
63.258000	131.030000	-3.710200	-17.424000	1
63.277000	131.120000	-3.359200	-17.423000	1
63.297000	131.200000	-5.762200	-17.424000	1
63.317000	131.290000	-8.532900	-17.422000	1
63.337000	131.380000	-8.174700	-17.424000	1
63.357000	131.470000	-8.528800	-17.423000	1
63.377000	131.550000	-6.799400	-17.424000	1
63.396000	131.640000	-7.150700	-17.423000	1
63.416000	131.730000	-8.531300	-17.424000	1
63.740000	133.240000	-5.443200	-17.424000	1
63.758000	133.330000	-6.826500	-17.424000	1
63.777000	133.420000	-7.495100	-17.424000	1
63.795000	133.510000	-6.821900	-17.423000	1
63.813000	133.600000	-7.494200	-17.424000	1
63.832000	133.690000	-7.149700	-17.424000	1
63.850000	133.780000	-5.775100	-17.424000	1
63.868000	133.880000	-6.801500	-17.424000	1
63.886000	133.970000	-8.194200	-17.424000	1
63.904000	134.060000	-6.465300	-17.424000	1
63.922000	134.150000	-5.116700	-17.424000	1
63.940000	134.240000	-8.200700	-17.424000	1
65.952000	150.310000	-5.727600	-17.426000	1
65.958000	150.410000	-6.071300	-17.425000	1
65.965000	150.520000	-5.384700	-17.425000	1
65.971000	150.630000	-5.381000	-17.425000	1
65.978000	150.740000	-5.737300	-17.425000	1
65.984000	150.840000	-5.372400	-17.425000	1
65.990000	150.950000	-5.379500	-17.425000	1
65.996000	151.060000	-6.080700	-17.425000	1
66.002000	151.160000	-5.386600	-17.425000	1
66.008000	151.270000	-5.732900	-17.426000	1
66.014000	151.380000	-5.382500	-17.426000	1
66.020000	151.480000	-5.379000	-17.425000	1
66.026000	151.590000	-4.688200	-17.426000	1
66.032000	151.700000	-5.728600	-17.425000	1
66.037000	151.810000	-6.420000	-17.425000	1
66.043000	151.910000	-5.731900	-17.426000	1
66.048000	152.020000	-5.735600	-17.425000	1
66.054000	152.130000	-5.048700	-17.426000	1
66.059000	152.230000	-7.109600	-17.426000	1
66.064000	152.340000	-7.807400	-17.425000	1
66.069000	152.450000	-6.064200	-17.425000	1
66.074000	152.560000	-1.957700	-17.426000	1
66.079000	152.660000	-6.769500	-17.425000	1
66.084000	152.770000	-6.075400	-17.425000	1
62.928000	129.880000	-9.863600	-16.660000	1
62.949000	129.960000	-10.215000	-16.661000	1
62.969000	130.050000	-9.525200	-16.660000	1
62.990000	130.130000	-9.184900	-16.660000	1
63.011000	130.220000	-9.871900	-16.660000	1
63.031000	130.310000	-8.490300	-16.661000	1
63.052000	130.390000	-8.497800	-16.660000	1
63.072000	130.480000	-9.188200	-16.660000	1
63.092000	130.560000	-9.535500	-16.660000	1
63.113000	130.650000	-8.153600	-16.661000	1
63.133000	130.740000	-8.489800	-16.661000	1
63.153000	130.820000	-8.844300	-16.660000	1
63.173000	130.910000	-9.524600	-16.661000	1
63.193000	131.000000	-9.878100	-16.660000	1
63.213000	131.080000	-9.523900	-16.661000	1
63.233000	131.170000	-8.839200	-16.660000	1
63.253000	131.260000	-8.159900	-16.661000	1
63.272000	131.340000	-6.775600	-16.660000	1
63.292000	131.430000	-7.469300	-16.661000	1
63.312000	131.520000	-9.179700	-16.660000	1
63.332000	131.610000	-8.151800	-16.661000	1
63.351000	131.690000	-5.057900	-16.660000	1
63.371000	131.780000	-7.113600	-16.661000	1
63.390000	131.870000	-7.124800	-16.660000	1
63.410000	131.960000	-6.766500	-16.662000	1
63.429000	132.050000	-8.487700	-16.661000	1
63.448000	132.130000	-8.491200	-16.661000	1
63.468000	132.220000	-9.189500	-16.660000	1
63.487000	132.310000	-7.804200	-16.661000	1
63.506000	132.400000	-8.158000	-16.661000	1
63.525000	132.490000	-6.089200	-16.661000	1
63.544000	132.580000	-8.494200	-16.661000	1
63.563000	132.670000	-8.153500	-16.661000	1
63.582000	132.760000	-7.125400	-16.661000	1
63.601000	132.840000	-7.125200	-16.661000	1
63.620000	132.930000	-6.086600	-16.662000	1
63.638000	133.020000	-6.094000	-16.661000	1
63.657000	133.110000	-7.800500	-16.661000	1
63.676000	133.200000	-7.119800	-16.661000	1
63.694000	133.290000	-7.814500	-16.662000	1
63.713000	133.380000	-6.443400	-16.661000	1
63.731000	133.470000	-6.110300	-16.661000	1
63.749000	133.560000	-8.163500	-16.661000	1
63.768000	133.650000	-8.148000	-16.661000	1
63.786000	133.740000	-8.483800	-16.661000	1
63.804000	133.830000	-8.841400	-16.661000	1
63.822000	133.920000	-6.429500	-16.661000	1
63.840000	134.020000	-6.802900	-16.661000	1
63.858000	134.110000	-7.489300	-16.661000	1
63.876000	134.200000	-6.450700	-16.661000	1
63.894000	134.290000	-4.741100	-16.661000	1
63.912000	134.380000	-7.155500	-16.661000	1
63.930000	134.470000	-4.736800	-16.661000	1
63.947000	134.560000	-6.457100	-16.661000	1
63.965000	134.650000	-6.112200	-16.662000	1
63.983000	134.750000	-6.784700	-16.662000	1
64.000000	134.840000	-6.788300	-16.661000	1
64.018000	134.930000	-8.173200	-16.661000	1
64.035000	135.020000	-6.115100	-16.662000	1
64.052000	135.110000	-8.863000	-16.662000	1
64.070000	135.210000	-7.141800	-16.662000	1
64.087000	135.300000	-8.157600	-16.661000	1
64.104000	135.390000	-6.780100	-16.661000	1
65.902000	150.330000	-5.695100	-16.663000	1
65.908000	150.440000	-5.706400	-16.662000	1
65.915000	150.540000	-4.324500	-16.662000	1
65.921000	150.650000	-5.705700	-16.663000	1
65.928000	150.760000	-5.007800	-16.663000	1
65.934000	150.860000	-5.361800	-16.662000	1
65.940000	150.970000	-4.663900	-16.662000	1
65.946000	151.080000	-3.640900	-16.663000	1
65.952000	151.180000	-5.007800	-16.662000	1
65.958000	151.290000	-5.003800	-16.663000	1
65.964000	151.400000	-5.357800	-16.663000	1
65.970000	151.500000	-5.690500	-16.662000	1
65.976000	151.610000	-5.361400	-16.663000	1
65.981000	151.720000	-5.690600	-16.663000	1
65.987000	151.820000	-4.664200	-16.662000	1
65.993000	151.930000	-5.698200	-16.663000	1
65.998000	152.040000	-4.320200	-16.663000	1
66.003000	152.150000	-3.626200	-16.663000	1
66.009000	152.250000	-4.335000	-16.663000	1
66.014000	152.360000	-3.644900	-16.663000	1
66.019000	152.470000	-5.361700	-16.663000	1
66.024000	152.580000	-4.338500	-16.664000	1
66.029000	152.680000	-7.086100	-16.663000	1
62.884000	129.930000	-10.100000	-15.902000	1
62.905000	130.020000	-9.741800	-15.903000	1
62.926000	130.100000	-10.100000	-15.902000	1
62.946000	130.190000	-9.065200	-15.902000	1
62.967000	130.270000	-8.367200	-15.902000	1
62.987000	130.360000	-8.711000	-15.903000	1
63.008000	130.440000	-9.398300	-15.903000	1
63.028000	130.530000	-8.718700	-15.902000	1
63.048000	130.620000	-9.742000	-15.902000	1
63.069000	130.700000	-10.092000	-15.903000	1
63.089000	130.790000	-9.745300	-15.903000	1
63.109000	130.870000	-8.020600	-15.902000	1
63.129000	130.960000	-8.363200	-15.903000	1
63.149000	131.050000	-8.020600	-15.902000	1
63.169000	131.130000	-9.748800	-15.903000	1
63.189000	131.220000	-9.745100	-15.902000	1
63.209000	131.310000	-9.053200	-15.903000	1
63.228000	131.400000	-8.359400	-15.902000	1
63.248000	131.480000	-7.339200	-15.903000	1
63.268000	131.570000	-9.064500	-15.902000	1
63.287000	131.660000	-9.059800	-15.904000	1
63.307000	131.740000	-5.618200	-15.902000	1
63.326000	131.830000	-4.935300	-15.903000	1
63.346000	131.920000	-6.992200	-15.903000	1
63.365000	132.010000	-8.010700	-15.904000	1
63.385000	132.100000	-8.719600	-15.903000	1
63.404000	132.180000	-7.681200	-15.903000	1
63.423000	132.270000	-8.715800	-15.902000	1
63.442000	132.360000	-7.681100	-15.903000	1
63.461000	132.450000	-7.333100	-15.903000	1
63.480000	132.540000	-8.017200	-15.903000	1
63.499000	132.630000	-7.332900	-15.903000	1
63.518000	132.720000	-7.332800	-15.903000	1
63.537000	132.810000	-6.309100	-15.903000	1
65.859000	150.460000	-5.228400	-15.904000	1
65.866000	150.570000	-4.537100	-15.904000	1
65.872000	150.670000	-4.533200	-15.905000	1
65.878000	150.780000	-4.551800	-15.905000	1
65.885000	150.880000	-5.228400	-15.904000	1
65.891000	150.990000	-4.544400	-15.904000	1
65.897000	151.100000	-5.228300	-15.905000	1
65.903000	151.200000	-4.544500	-15.904000	1
65.909000	151.310000	-5.224500	-15.905000	1
65.915000	151.420000	-5.922300	-15.905000	1
65.921000	151.520000	-4.548500	-15.904000	1
65.926000	151.630000	-4.548100	-15.905000	1
65.932000	151.740000	-4.884600	-15.905000	1
65.938000	151.840000	-6.272800	-15.904000	1
65.943000	151.950000	-4.880900	-15.905000	1
65.949000	152.060000	-4.877300	-15.905000	1
65.954000	152.160000	-7.635900	-15.905000	1
62.798000	130.040000	-9.625500	-14.392000	1
62.819000	130.120000	-9.279000	-14.393000	1
62.839000	130.210000	-9.275400	-14.392000	1
62.860000	130.290000	-10.307000	-14.392000	1
62.880000	130.380000	-9.271800	-14.392000	1
62.901000	130.460000	-9.625700	-14.393000	1
62.921000	130.550000	-8.931200	-14.393000	1
62.941000	130.630000	-8.241000	-14.392000	1
62.962000	130.720000	-8.585100	-14.392000	1
62.982000	130.810000	-9.275400	-14.392000	1
63.002000	130.890000	-8.244400	-14.393000	1
63.022000	130.980000	-8.931500	-14.392000	1
63.042000	131.060000	-7.904000	-14.393000	1
63.062000	131.150000	-7.904500	-14.392000	1
63.082000	131.240000	-7.557500	-14.393000	1
63.102000	131.320000	-8.580700	-14.392000	1
63.121000	131.410000	-6.523100	-14.393000	1
63.141000	131.500000	-7.900600	-14.392000	1
65.722000	149.870000	-4.763500	-14.395000	1
65.728000	149.970000	-5.457900	-14.393000	1
65.735000	150.080000	-4.083400	-14.394000	1
65.742000	150.180000	-5.789900	-14.395000	1
65.749000	150.290000	-4.075900	-14.394000	1
65.755000	150.400000	-5.109500	-14.395000	1
65.762000	150.500000	-5.449700	-14.394000	1
65.768000	150.610000	-4.415800	-14.394000	1
65.775000	150.710000	-4.075400	-14.394000	1
65.781000	150.820000	-5.109400	-14.394000	1
65.787000	150.930000	-4.759400	-14.394000	1
65.793000	151.030000	-4.755600	-14.394000	1
65.800000	151.140000	-4.071600	-14.395000	1
65.806000	151.240000	-3.041500	-14.394000	1
65.812000	151.350000	-5.109400	-14.395000	1
65.817000	151.460000	-5.449500	-14.395000	1
65.823000	151.560000	-4.419400	-14.394000	1
65.829000	151.670000	-4.422900	-14.395000	1
65.834000	151.780000	-6.151200	-14.395000	1
62.755000	130.090000	-8.884400	-13.635000	1
62.776000	130.170000	-8.884100	-13.635000	1
62.796000	130.260000	-9.238600	-13.635000	1
62.817000	130.340000	-8.544200	-13.635000	1
62.837000	130.430000	-9.235000	-13.635000	1
62.858000	130.510000	-8.891500	-13.635000	1
62.878000	130.600000	-8.891500	-13.635000	1
62.898000	130.680000	-8.891600	-13.635000	1
62.919000	130.770000	-9.241900	-13.635000	1
62.939000	130.860000	-8.547700	-13.635000	1
62.959000	130.940000	-8.551000	-13.636000	1
62.979000	131.030000	-8.203600	-13.635000	1
62.999000	131.110000	-7.516600	-13.635000	1
63.019000	131.200000	-8.891500	-13.634000	1
63.038000	131.290000	-6.825900	-13.636000	1
63.058000	131.370000	-8.207000	-13.635000	1
63.078000	131.460000	-7.520000	-13.636000	1
63.098000	131.550000	-8.206900	-13.634000	1
63.117000	131.630000	-7.179300	-13.636000	1
63.137000	131.720000	-7.860100	-13.635000	1
63.157000	131.810000	-7.511600	-13.636000	1
63.176000	131.900000	-9.244400	-13.635000	1
63.195000	131.980000	-8.549500	-13.635000	1
63.215000	132.070000	-8.549400	-13.635000	1
65.694000	150.210000	-5.054300	-13.637000	1
65.700000	150.310000	-4.028000	-13.636000	1
65.707000	150.420000	-4.370000	-13.637000	1
65.714000	150.520000	-3.687200	-13.637000	1
65.720000	150.630000	-4.366000	-13.636000	1
65.726000	150.730000	-4.713300	-13.637000	1
65.733000	150.840000	-4.376900	-13.637000	1
65.739000	150.950000	-3.683000	-13.637000	1
65.745000	151.050000	-4.709400	-13.637000	1
65.751000	151.160000	-4.022900	-13.637000	1
65.757000	151.260000	-5.057100	-13.636000	1
65.763000	151.370000	-2.992700	-13.637000	1
65.769000	151.480000	-5.399400	-13.637000	1
65.775000	151.580000	-5.407200	-13.636000	1
65.780000	151.690000	-4.716800	-13.637000	1
65.786000	151.790000	-4.709400	-13.637000	1
65.791000	151.900000	-2.306600	-13.637000	1
65.797000	152.010000	-4.728100	-13.637000	1
65.802000	152.110000	-4.388300	-13.637000	1
65.808000	152.220000	-6.777700	-13.637000	1
65.813000	152.330000	-6.773900	-13.637000	1
62.713000	130.140000	-9.785500	-12.875000	1
62.733000	130.220000	-8.049200	-12.876000	1
62.754000	130.310000	-8.399900	-12.875000	1
62.774000	130.390000	-8.407500	-12.875000	1
62.795000	130.480000	-8.399700	-12.876000	1
62.815000	130.560000	-8.053200	-12.876000	1
62.835000	130.650000	-8.747300	-12.876000	1
62.855000	130.740000	-8.411200	-12.875000	1
62.876000	130.820000	-7.716900	-12.876000	1
62.896000	130.910000	-8.407300	-12.876000	1
62.916000	130.990000	-8.395700	-12.877000	1
62.936000	131.080000	-8.736300	-12.875000	1
62.956000	131.160000	-8.053200	-12.876000	1
62.975000	131.250000	-8.411200	-12.875000	1
62.995000	131.340000	-8.403100	-12.876000	1
63.015000	131.420000	-7.372800	-12.876000	1
63.035000	131.510000	-7.712700	-12.876000	1
63.054000	131.600000	-7.376500	-12.875000	1
63.074000	131.680000	-8.409400	-12.876000	1
63.094000	131.770000	-8.413600	-12.875000	1
63.113000	131.860000	-7.714900	-12.877000	1
63.132000	131.950000	-8.405700	-12.876000	1
63.152000	132.030000	-8.055100	-12.876000	1
63.171000	132.120000	-7.718600	-12.876000	1
63.190000	132.210000	-7.374000	-12.877000	1
63.210000	132.290000	-8.400900	-12.876000	1
63.229000	132.380000	-8.396900	-12.876000	1
63.248000	132.470000	-9.080800	-12.876000	1
63.267000	132.560000	-9.084900	-12.876000	1
63.286000	132.650000	-9.076700	-12.877000	1
63.305000	132.740000	-8.049700	-12.876000	1
65.639000	150.120000	-4.923900	-12.877000	1
65.646000	150.230000	-5.263700	-12.878000	1
65.652000	150.330000	-4.583600	-12.877000	1
65.659000	150.440000	-4.587100	-12.878000	1
65.665000	150.540000	-3.203100	-12.877000	1
65.672000	150.650000	-4.233400	-12.877000	1
65.678000	150.750000	-4.579600	-12.877000	1
65.684000	150.860000	-4.575800	-12.878000	1
65.691000	150.970000	-4.237100	-12.877000	1
65.697000	151.070000	-3.206800	-12.877000	1
65.703000	151.180000	-4.233100	-12.878000	1
65.709000	151.280000	-4.575800	-12.877000	1
65.715000	151.390000	-2.857800	-12.878000	1
65.721000	151.490000	-4.235300	-12.878000	1
65.726000	151.600000	-4.918200	-12.877000	1
65.732000	151.710000	-6.295600	-12.878000	1
65.738000	151.810000	-4.231100	-12.878000	1
65.743000	151.920000	-0.458170	-12.877000	1
65.749000	152.020000	-4.932300	-12.878000	1
65.754000	152.130000	-3.208100	-12.877000	1
65.759000	152.240000	-1.491300	-12.878000	1
65.764000	152.340000	-5.618100	-12.878000	1
65.770000	152.450000	-5.961900	-12.878000	1
65.863000	154.800000	-6.999400	-12.877000	1
65.866000	154.900000	-2.870500	-12.878000	1
65.869000	155.010000	-1.486700	-12.877000	1
65.873000	155.120000	-1.161800	-12.877000	1
65.876000	155.220000	-6.987800	-12.878000	1
65.879000	155.330000	-5.282700	-12.877000	1
65.882000	155.440000	-1.501900	-12.877000	1
65.885000	155.550000	-5.950100	-12.878000	1
65.887000	155.650000	-6.980600	-12.877000	1
65.890000	155.760000	-6.290300	-12.877000	1
65.893000	155.870000	-5.953800	-12.878000	1
62.670000	130.190000	-9.110200	-12.115000	1
62.691000	130.280000	-7.739300	-12.116000	1
62.711000	130.360000	-8.423000	-12.115000	1
62.731000	130.440000	-8.773500	-12.115000	1
62.752000	130.530000	-8.419400	-12.116000	1
62.772000	130.620000	-9.453600	-12.116000	1
62.792000	130.700000	-8.423100	-12.116000	1
62.813000	130.790000	-8.079100	-12.115000	1
62.833000	130.870000	-8.777000	-12.116000	1
62.853000	130.960000	-7.392700	-12.115000	1
62.873000	131.040000	-8.422500	-12.117000	1
62.893000	131.130000	-7.396500	-12.115000	1
62.913000	131.210000	-8.426400	-12.116000	1
62.932000	131.300000	-8.079200	-12.115000	1
62.952000	131.390000	-8.426300	-12.116000	1
62.972000	131.470000	-7.738700	-12.116000	1
62.992000	131.560000	-8.078200	-12.116000	1
63.011000	131.650000	-8.414800	-12.115000	1
63.031000	131.730000	-7.395300	-12.116000	1
63.050000	131.820000	-8.414700	-12.115000	1
